0.058976, 0.058976, 0.077968, 0.100138, 0.123103, 0.123105, 0.144773, 0.163852, 0.179552, 0.191382, 0.191382, 0.185940, 0.149315, 0.109097, 0.078485, 0.058760, 0.049155, 0.049155, 0.048395, 0.054960, 0.065731, 0.079049, 0.096041, 0.096041, 0.115521, 0.135044, 0.153031, 0.168544, 0.181042, 0.188754, 0.188754, 0.169617, 0.126642, 0.087179, 0.059318, 0.043055, 0.037234, 0.037234, 0.040315, 0.050388, 0.063529, 0.079750, 0.099680, 0.099680, 0.121146, 0.141723, 0.160107, 0.175489, 0.187426, 0.189720, 0.189720, 0.157805, 0.107532, 0.065441, 0.037295, 0.022183, 0.018571, 0.018571, 0.024593, 0.037576, 0.053509, 0.073986, 0.097796, 0.097796, 0.122343, 0.145339, 0.165443, 0.181903, 0.194111, 0.187365, 0.187365, 0.144861, 0.097728, 0.062208, 0.039555, 0.028738, 0.028247, 0.028247, 0.036253, 0.049223, 0.065238, 0.085452, 0.108471, 0.108471, 0.131325, 0.152336, 0.170330, 0.184766, 0.193514, 0.173069, 0.173069, 0.123195, 0.076135, 0.042801, 0.023148, 0.015784, 0.018898, 0.018898, 0.030273, 0.045627, 0.064919, 0.088352, 0.113470, 0.113470, 0.137574, 0.159167, 0.177201, 0.191241, 0.193912, 0.160595, 0.160595, 0.110661, 0.068643, 0.040361, 0.024943, 0.020926, 0.026473, 0.026473, 0.038884, 0.054335, 0.074391, 0.097825, 0.122031, 0.122031, 0.144768, 0.164746, 0.181109, 0.193215, 0.184659, 0.141753, 0.141753, 0.096261, 0.062131, 0.040614, 0.030672, 0.030780, 0.039138, 0.039138, 0.052165, 0.068138, 0.088200, 0.110950, 0.133374, 0.133374, 0.153890, 0.171403, 0.185345, 0.193431, 0.175792, 0.135297, 0.135297, 0.096988, 0.069554, 0.053021, 0.046392, 0.048256, 0.056775, 0.056775, 0.068053, 0.082799, 0.101369, 0.121637, 0.141196, 0.141196, 0.158811, 0.173624, 0.185205, 0.185154, 0.150056, 0.101877, 0.101877, 0.062940, 0.037501, 0.024574, 0.022602, 0.029728, 0.043103, 0.043103, 0.059178, 0.079609, 0.103000, 0.126810, 0.148936, 0.148936, 0.168121, 0.183677, 0.194829, 0.185246, 0.141007, 0.092556, 0.092556, 0.056123, 0.033120, 0.022460, 0.022481, 0.031263, 0.044854, 0.044854, 0.061934, 0.083408, 0.107623, 0.131460, 0.153279, 0.153279, 0.171903, 0.186760, 0.194695, 0.169328, 0.115262, 0.065103, 0.065103, 0.030112, 0.009895, 0.002897, 0.007022, 0.019878, 0.036797, 0.036797, 0.058329, 0.084031, 0.111195, 0.137124, 0.160244, 0.160244, 0.179494, 0.194360, 0.195641, 0.157508, 0.101365, 0.055342, 0.055342, 0.024677, 0.008289, 0.004477, 0.011145, 0.025139, 0.042866, 0.042866, 0.065672, 0.091932, 0.118725, 0.143822, 0.165770, 0.165770, 0.183702, 0.196638, 0.185080, 0.136623, 0.084581, 0.045736, 0.045736, 0.021437, 0.010391, 0.010821, 0.020611, 0.035623, 0.054643, 0.054643, 0.078214, 0.104304, 0.129844, 0.153150, 0.173012, 0.173012, 0.188812, 0.196922, 0.172766, 0.128488, 0.089894, 0.062835, 0.062835, 0.047017, 0.041307, 0.044262, 0.053791, 0.065932, 0.081855, 0.081855, 0.101485, 0.122564, 0.142725, 0.160745, 0.175773, 0.175773, 0.187400, 0.185345, 0.146621, 0.095951, 0.055926, 0.030031, 0.030031, 0.017202, 0.015729, 0.023712, 0.037897, 0.055183, 0.076779, 0.076779, 0.101516, 0.126444, 0.149515, 0.169421, 0.185488, 0.185488, 0.196558, 0.182766, 0.136848, 0.089285, 0.054155, 0.032339, 0.032339, 0.022673, 0.023472, 0.032839, 0.046642, 0.064092, 0.085755, 0.085755, 0.109875, 0.133412, 0.154852, 0.173057, 0.187513, 0.187513, 0.193713, 0.167278, 0.120720, 0.079443, 0.050940, 0.034700, 0.034700, 0.029425, 0.033423, 0.044443, 0.058263, 0.076245, 0.097951, 0.097951, 0.120899, 0.142700, 0.162059, 0.178117, 0.190418, 0.190418, 0.187885, 0.148794, 0.098681, 0.059735, 0.034481, 0.021886, 0.021886, 0.020365, 0.027992, 0.041483, 0.058168, 0.079199, 0.103242, 0.103242, 0.127436, 0.149806, 0.169129, 0.184735, 0.195416, 0.195410, 0.180319, 0.131387, 0.081609, 0.045440, 0.023331, 0.013963, 0.013963, 0.015549, 0.025979, 0.041009, 0.060015, 0.083247, 0.108770, 0.108770, 0.133548, 0.155971, 0.174937, 0.189882, 0.195721, 0.195713, 0.165851, 0.114091, 0.069180, 0.038549, 0.021336, 0.016086, 0.016086, 0.020927, 0.033301, 0.049019, 0.069263, 0.093186, 0.118268, 0.118268, 0.142014, 0.163008, 0.180351, 0.193554, 0.190713, 0.190713, 0.151819, 0.103176, 0.065619, 0.041119, 0.028711, 0.026922, 0.026922, 0.033951, 0.046484, 0.062199, 0.082118, 0.105073, 0.128190, 0.128190, 0.149636, 0.168208, 0.183249, 0.193219, 0.175891, 0.175894, 0.130255, 0.087658, 0.057182, 0.038969, 0.031819, 0.034146, 0.034146, 0.044051, 0.057432, 0.074208, 0.094732, 0.117187, 0.138908, 0.138908, 0.158488, 0.174930, 0.187832, 0.191580, 0.162498, 0.162498, 0.119621, 0.083649, 0.059247, 0.045835, 0.042187, 0.046773, 0.046773, 0.057318, 0.070034, 0.086482, 0.106225, 0.127018, 0.146665, 0.146665, 0.163993, 0.178262, 0.189018, 0.182461, 0.141490, 0.143057, 0.096182, 0.062010, 0.040430, 0.030462, 0.030569, 0.038951, 0.038951, 0.052142, 0.068139, 0.088039, 0.110653, 0.133149, 0.153770, 0.153770, 0.171402, 0.185469, 0.194106, 0.175149, 0.132627, 0.132581, 0.093519, 0.065595, 0.048869, 0.042340, 0.044536, 0.053671, 0.053671, 0.065729, 0.081049, 0.099926, 0.120708, 0.140799, 0.158897, 0.158897, 0.174128, 0.186042, 0.188556, 0.159287, 0.115957, 0.116208, 0.081052, 0.057778, 0.045334, 0.042519, 0.047760, 0.058681, 0.058681, 0.071636, 0.088409, 0.108335, 0.129033, 0.148452, 0.165461, 0.165461, 0.179378, 0.189677, 0.181844, 0.136589, 0.084259, 0.083840, 0.044777, 0.020026, 0.008709, 0.009019, 0.018850, 0.034349, 0.034349, 0.053333, 0.076819, 0.103121, 0.129063, 0.152786, 0.173020, 0.173020, 0.189143, 0.198750, 0.177058, 0.125365, 0.076434, 0.076678, 0.041522, 0.020684, 0.012499, 0.015155, 0.026401, 0.041677, 0.041677, 0.061288, 0.085218, 0.111062, 0.135938, 0.158301, 0.177055, 0.177055, 0.191691, 0.195151, 0.163487, 0.114391, 0.073647, 0.073429, 0.046085, 0.030909, 0.026714, 0.031806, 0.043460, 0.057930, 0.057930, 0.077010, 0.099594, 0.123075, 0.145164, 0.164582, 0.180538, 0.180538, 0.192340, 0.182642, 0.134138, 0.080622, 0.040542, 0.042912, 0.015568, 0.004376, 0.004952, 0.015309, 0.031288, 0.051001, 0.051001, 0.075297, 0.102320, 0.128875, 0.153107, 0.173740, 0.190151, 0.190151, 0.199847, 0.180222, 0.133851, 0.089748, 0.057980, 0.038659, 0.038659, 0.030644, 0.032332, 0.041699, 0.054567, 0.071438, 0.071438, 0.092494, 0.115291, 0.137382, 0.157341, 0.174202, 0.187453, 0.187453, 0.188040, 0.150869, 0.098719, 0.056045, 0.028042, 0.013617, 0.013617, 0.011087, 0.018437, 0.032660, 0.049987, 0.071977, 0.071977, 0.097267, 0.123017, 0.147002, 0.167853, 0.184790, 0.197035, 0.197035, 0.187112, 0.142087, 0.093282, 0.056553, 0.033306, 0.022416, 0.022416, 0.022260, 0.030912, 0.044434, 0.061461, 0.082939, 0.082939, 0.107107, 0.130902, 0.152734, 0.171427, 0.186380, 0.194382, 0.194382, 0.171282, 0.124015, 0.080032, 0.049105, 0.031010, 0.024448, 0.024448, 0.027717, 0.038569, 0.052688, 0.070947, 0.093262, 0.093262, 0.117161, 0.140014, 0.160443, 0.177468, 0.190652, 0.191363, 0.191363, 0.155362, 0.103139, 0.060061, 0.031473, 0.016367, 0.013126, 0.013126, 0.019798, 0.033253, 0.050066, 0.071697, 0.096719, 0.096719, 0.122249, 0.146072, 0.166864, 0.183803, 0.195930, 0.185234, 0.185234, 0.142409, 0.097917, 0.064673, 0.043722, 0.034069, 0.034220, 0.034220, 0.042400, 0.054693, 0.070146, 0.089860, 0.112305, 0.112305, 0.134357, 0.154495, 0.171688, 0.185381, 0.192379, 0.169213, 0.169213, 0.122280, 0.080646, 0.051759, 0.035156, 0.029566, 0.033327, 0.033327, 0.044220, 0.057996, 0.075780, 0.097380, 0.120336, 0.120336, 0.142220, 0.161670, 0.177834, 0.190281, 0.188736, 0.149775, 0.149775, 0.096917, 0.054424, 0.026669, 0.012525, 0.010309, 0.017980, 0.017980, 0.032251, 0.049839, 0.072100, 0.097735, 0.123677, 0.123677, 0.147753, 0.168617, 0.185530, 0.197363, 0.184251, 0.139779, 0.139779, 0.094268, 0.060237, 0.038954, 0.029310, 0.029758, 0.038436, 0.038436, 0.051309, 0.067606, 0.088169, 0.111282, 0.133908, 0.133908, 0.154571, 0.172148, 0.186150, 0.192159, 0.165844, 0.121503, 0.121503, 0.083010, 0.056500, 0.041537, 0.036904, 0.041001, 0.051638, 0.051638, 0.064714, 0.081654, 0.102172, 0.123920, 0.144566, 0.144566, 0.162856, 0.177978, 0.189540, 0.186823, 0.150696, 0.104923, 0.104923, 0.068567, 0.044832, 0.032857, 0.031183, 0.038057, 0.050330, 0.050330, 0.065332, 0.084423, 0.106740, 0.129319, 0.150254, 0.150254, 0.168381, 0.183032, 0.193013, 0.178442, 0.134911, 0.091830, 0.091830, 0.060208, 0.040849, 0.032680, 0.034131, 0.043362, 0.056206, 0.056206, 0.072453, 0.092674, 0.115188, 0.137105, 0.156958, 0.156958, 0.173750, 0.186985, 0.191900, 0.164235, 0.118031, 0.077763, 0.077763, 0.050219, 0.034785, 0.030167, 0.034679, 0.045994, 0.059997, 0.059997, 0.078192, 0.099827, 0.122539, 0.144053, 0.163090, 0.163090, 0.178827, 0.190785, 0.186354, 0.145201, 0.094313, 0.054894, 0.054894, 0.029548, 0.017170, 0.016120, 0.024409, 0.038521, 0.055942, 0.055942, 0.077800, 0.102647, 0.127550, 0.150518, 0.170288, 0.170288, 0.186206, 0.196792, 0.180912, 0.137123, 0.095201, 0.064667, 0.064667, 0.045902, 0.037866, 0.039121, 0.047834, 0.059948, 0.075502, 0.075502, 0.095005, 0.116655, 0.137746, 0.156884, 0.173085, 0.173085, 0.185895, 0.189776, 0.160375, 0.114517, 0.076337, 0.050684, 0.050684, 0.036753, 0.033220, 0.038455, 0.050015, 0.063939, 0.081908, 0.081908, 0.103255, 0.125517, 0.146502, 0.164946, 0.180098, 0.180098, 0.191484, 0.185745, 0.146100, 0.103332, 0.071561, 0.051345, 0.051345, 0.041805, 0.041564, 0.049024, 0.060777, 0.074945, 0.093075, 0.093075, 0.113925, 0.134703, 0.153832, 0.170254, 0.183430, 0.183430, 0.191306, 0.169114, 0.121659, 0.079153, 0.049422, 0.032260, 0.032260, 0.026368, 0.030028, 0.041263, 0.055755, 0.073612, 0.095185, 0.095185, 0.118505, 0.140810, 0.160739, 0.177353, 0.190230, 0.190230, 0.193057, 0.161656, 0.117198, 0.081407, 0.057334, 0.044263, 0.044263, 0.040979, 0.045905, 0.056670, 0.069410, 0.086308, 0.106367, 0.106367, 0.127285, 0.146983, 0.164327, 0.178598, 0.189268, 0.189268, 0.181909, 0.140648, 0.097302, 0.065704, 0.045994, 0.037194, 0.037194, 0.037835, 0.046198, 0.058836, 0.073898, 0.092843, 0.114426, 0.114426, 0.135741, 0.155188, 0.171762, 0.184962, 0.192779, 0.192779, 0.172717, 0.124068, 0.078980, 0.047201, 0.028536, 0.021673, 0.021673, 0.024854, 0.035907, 0.050521, 0.068944, 0.091455, 0.115636, 0.115636, 0.138843, 0.159609, 0.176983, 0.190495, 0.193026, 0.193026, 0.159508, 0.110208, 0.068996, 0.041367, 0.026420, 0.022718, 0.022718, 0.028439, 0.040845, 0.056075, 0.075862, 0.099038, 0.122997, 0.122997, 0.145507, 0.165236, 0.181431, 0.193415, 0.185695, 0.185695, 0.145278, 0.101947, 0.069308, 0.048563, 0.038774, 0.038531, 0.038531, 0.046151, 0.058004, 0.072648, 0.091409, 0.112865, 0.134112, 0.134112, 0.153632, 0.170346, 0.183744, 0.190988, 0.165387, 0.165387, 0.111020, 0.062203, 0.028506, 0.009463, 0.003440, 0.008355, 0.008355, 0.021830, 0.039168, 0.060717, 0.086338, 0.113473, 0.139280, 0.139280, 0.162184, 0.181126, 0.195686, 0.197966, 0.166336, 0.166336, 0.122255, 0.085549, 0.060520, 0.046495, 0.042330, 0.046486, 0.046486, 0.056418, 0.068744, 0.085335, 0.105417, 0.126390, 0.146214, 0.146214, 0.163702, 0.178101, 0.188675, 0.176250, 0.127337, 0.127337, 0.075623, 0.037417, 0.014175, 0.004469, 0.006297, 0.017569, 0.017569, 0.034112, 0.054216, 0.078580, 0.105581, 0.131874, 0.155688, 0.155688, 0.175830, 0.191684, 0.200250, 0.177173, 0.129272, 0.129272, 0.085457, 0.054349, 0.035794, 0.028577, 0.031057, 0.041102, 0.041102, 0.054456, 0.071848, 0.093333, 0.116515, 0.138832, 0.158894, 0.158894, 0.175724, 0.188844, 0.188221, 0.149224, 0.095437, 0.095437, 0.051977, 0.023553, 0.009085, 0.006790, 0.014619, 0.029378, 0.029378, 0.047500, 0.070301, 0.096468, 0.123050, 0.147712, 0.169075, 0.169075, 0.186371, 0.198669, 0.188475, 0.144103, 0.096280, 0.096280, 0.060416, 0.037600, 0.026818, 0.026477, 0.034732, 0.047577, 0.047577, 0.063851, 0.084595, 0.108234, 0.131544, 0.152925, 0.171224, 0.171224, 0.185870, 0.193207, 0.166289, 0.113148, 0.065512, 0.065512, 0.032683, 0.014049, 0.008088, 0.012803, 0.025749, 0.042331, 0.042331, 0.063422, 0.088443, 0.114793, 0.139837, 0.162061, 0.180480, 0.180480, 0.194621, 0.194907, 0.159357, 0.110928, 0.071774, 0.071774, 0.045603, 0.031560, 0.028303, 0.034037, 0.045706, 0.060390, 0.060390, 0.079719, 0.102285, 0.125387, 0.147017, 0.165932, 0.181388, 0.181388, 0.192327, 0.178850, 0.131486, 0.083207, 0.047969, 0.047969, 0.026449, 0.017369, 0.019017, 0.029320, 0.044085, 0.062378, 0.062378, 0.084900, 0.109929, 0.134255, 0.156284, 0.174898, 0.189583, 0.189583, 0.195955, 0.165861, 0.110760, 0.062687, 0.029769, 0.029769, 0.011262, 0.005531, 0.010620, 0.023892, 0.040785, 0.062382, 0.062382, 0.088030, 0.114898, 0.140370, 0.162917, 0.181553, 0.195780, 0.195780, 0.194478, 0.156701, 0.107707, 0.068485, 0.042474, 0.042474, 0.028774, 0.025912, 0.032158, 0.044259, 0.059527, 0.079374, 0.079374, 0.102499, 0.125993, 0.147913, 0.167004, 0.182553, 0.193215, 0.193215, 0.176259, 0.126240, 0.074966, 0.037579, 0.014985, 0.014985, 0.005743, 0.007890, 0.019309, 0.035455, 0.055624, 0.080209, 0.080209, 0.107077, 0.133085, 0.156607, 0.176432, 0.192014, 0.198430, 0.198430, 0.169782, 0.120558, 0.078606, 0.049663, 0.033148, 0.033148, 0.027752, 0.031750, 0.042836, 0.056793, 0.075179, 0.097222, 0.097222, 0.120475, 0.142563, 0.162188, 0.178460, 0.190906, 0.187091, 0.187091, 0.146162, 0.094491, 0.054184, 0.028169, 0.015350, 0.015350, 0.014039, 0.022218, 0.036400, 0.053941, 0.076086, 0.101320, 0.101320, 0.126620, 0.149973, 0.170111, 0.186343, 0.197283, 0.181805, 0.181805, 0.135866, 0.090999, 0.058462, 0.038482, 0.029925, 0.029925, 0.031227, 0.040447, 0.053457, 0.070093, 0.090895, 0.113847, 0.113847, 0.136181, 0.156436, 0.173590, 0.187160, 0.191394, 0.158970, 0.158970, 0.104966, 0.059078, 0.028318, 0.011646, 0.007407, 0.007407, 0.013587, 0.027452, 0.044685, 0.066591, 0.092033, 0.118414, 0.118414, 0.143227, 0.165020, 0.182918, 0.196367, 0.191516, 0.152393, 0.152393, 0.108006, 0.074268, 0.052303, 0.041279, 0.039867, 0.039867, 0.046436, 0.057644, 0.071617, 0.089622, 0.110702, 0.131934, 0.131934, 0.151591, 0.168568, 0.182285, 0.190855, 0.170081, 0.118841, 0.118841, 0.071096, 0.037571, 0.018093, 0.011177, 0.014928, 0.014928, 0.027109, 0.043298, 0.063389, 0.087369, 0.113238, 0.138047, 0.138047, 0.160217, 0.178693, 0.193025, 0.197023, 0.168723, 0.128559, 0.128559, 0.095056, 0.071962, 0.058819, 0.054601, 0.057968, 0.057968, 0.066748, 0.077401, 0.091916, 0.109692, 0.128589, 0.146577, 0.146577, 0.162554, 0.175807, 0.185830, 0.176796, 0.134708, 0.092070, 0.092070, 0.060839, 0.041713, 0.033663, 0.035138, 0.044369, 0.044369, 0.057800, 0.073704, 0.093182, 0.115165, 0.136794, 0.156464, 0.156464, 0.173155, 0.186349, 0.194019, 0.173473, 0.131300, 0.094630, 0.094630, 0.068778, 0.053537, 0.047927, 0.050541, 0.059615, 0.059615, 0.071137, 0.085672, 0.103921, 0.123910, 0.143135, 0.160360, 0.160360, 0.174777, 0.185984, 0.186679, 0.152436, 0.101543, 0.058814, 0.058814, 0.030592, 0.015830, 0.012908, 0.019851, 0.033781, 0.033781, 0.050638, 0.072193, 0.097032, 0.122536, 0.146340, 0.167102, 0.167102, 0.184013, 0.196411, 0.188469, 0.143585, 0.092447, 0.053510, 0.053510, 0.028654, 0.016721, 0.016060, 0.024676, 0.038705, 0.038705, 0.056290, 0.078522, 0.103656, 0.128595, 0.151522, 0.171197, 0.171197, 0.186980, 0.196248, 0.172975, 0.118247, 0.065952, 0.029093, 0.029093, 0.007495, 0.000337, 0.003070, 0.015795, 0.032858, 0.032858, 0.054452, 0.080498, 0.108385, 0.135165, 0.159152, 0.179205, 0.179205, 0.194787, 0.197789, 0.163027, 0.112366, 0.070534, 0.042298, 0.042298, 0.026803, 0.022610, 0.027937, 0.039935, 0.054989, 0.054989, 0.074730, 0.098083, 0.122206, 0.144903, 0.164849, 0.181234, 0.181234, 0.193260, 0.182692, 0.133064, 0.078141, 0.037255, 0.011861, 0.011861, 0.001089, 0.001471, 0.012069, 0.028443, 0.048613, 0.048613, 0.073459, 0.101121, 0.128224, 0.152988, 0.174064, 0.190822, 0.190822, 0.200201, 0.176700, 0.126744, 0.080501, 0.047718, 0.028204, 0.028204, 0.020661, 0.023336, 0.034015, 0.048317, 0.066871, 0.066871, 0.089694, 0.114315, 0.137947, 0.159164, 0.176934, 0.190775, 0.190775, 0.191105, 0.152635, 0.099571, 0.056493, 0.028134, 0.013416, 0.013416, 0.010669, 0.017873, 0.031966, 0.049272, 0.071367, 0.071367, 0.096785, 0.122713, 0.146833, 0.167827, 0.184892, 0.197121, 0.197121, 0.186020, 0.140744, 0.091611, 0.054616, 0.031261, 0.020412, 0.020412, 0.020406, 0.029281, 0.043020, 0.060291, 0.082168, 0.082168, 0.106789, 0.131022, 0.153186, 0.172150, 0.187301, 0.194934, 0.194934, 0.169807, 0.119790, 0.073795, 0.041762, 0.023246, 0.016831, 0.016831, 0.020690, 0.032421, 0.047553, 0.067067, 0.090725, 0.090725, 0.115957, 0.140038, 0.161460, 0.179302, 0.193055, 0.192424, 0.192424, 0.153751, 0.103413, 0.063303, 0.036877, 0.023172, 0.020662, 0.020662, 0.027484, 0.040392, 0.056232, 0.076850, 0.100812, 0.100812, 0.125221, 0.147954, 0.167684, 0.183734, 0.194952, 0.180656, 0.180656, 0.131147, 0.079587, 0.041566, 0.018204, 0.008133, 0.009475, 0.009475, 0.020113, 0.035602, 0.054933, 0.078876, 0.105550, 0.105550, 0.131523, 0.155101, 0.175028, 0.190790, 0.198555, 0.175094, 0.175094, 0.130925, 0.091420, 0.063592, 0.047105, 0.040872, 0.043408, 0.043408, 0.052619, 0.064321, 0.080031, 0.099780, 0.121104, 0.121104, 0.141586, 0.159955, 0.175320, 0.187271, 0.184546, 0.146885, 0.146885, 0.100688, 0.064859, 0.041791, 0.030530, 0.029574, 0.037141, 0.037141, 0.050077, 0.065569, 0.085106, 0.107733, 0.130513, 0.130511, 0.151553, 0.169688, 0.184271, 0.194224, 0.180421, 0.138984, 0.138984, 0.098960, 0.069692, 0.051658, 0.043879, 0.044970, 0.053254, 0.053254, 0.064771, 0.079192, 0.097586, 0.118396, 0.138694, 0.138698, 0.157116, 0.172727, 0.185054, 0.189380, 0.160234, 0.111875, 0.111875, 0.069957, 0.041551, 0.025975, 0.021775, 0.027136, 0.039625, 0.039625, 0.054882, 0.074279, 0.097310, 0.121437, 0.144206, 0.144207, 0.164272, 0.180792, 0.193266, 0.190132, 0.155023, 0.114607, 0.114607, 0.083291, 0.062695, 0.052164, 0.050483, 0.056200, 0.066274, 0.066274, 0.078615, 0.094784, 0.114057, 0.133671, 0.151888, 0.151889, 0.167682, 0.180503, 0.188861, 0.172026, 0.127641, 0.083889, 0.083889, 0.052375, 0.033585, 0.026320, 0.028896, 0.039346, 0.053330, 0.053330, 0.070660, 0.092050, 0.115625, 0.138374, 0.158848, 0.158854, 0.176036, 0.189478, 0.194091, 0.166565, 0.123860, 0.087339, 0.087339, 0.062289, 0.048117, 0.043732, 0.047619, 0.057559, 0.069703, 0.069703, 0.085811, 0.105317, 0.125897, 0.145448, 0.162783, 0.162782, 0.177156, 0.188094, 0.182587, 0.141782, 0.095182, 0.059926, 0.059926, 0.037631, 0.027237, 0.027222, 0.035695, 0.049148, 0.065377, 0.065377, 0.085807, 0.108999, 0.132095, 0.153279, 0.171409, 0.171407, 0.185918, 0.195231, 0.178621, 0.137730, 0.100498, 0.073747, 0.073747, 0.057489, 0.050783, 0.052357, 0.060496, 0.071231, 0.084984, 0.084984, 0.102566, 0.122201, 0.141275, 0.158527, 0.173092, 0.173091, 0.184550, 0.187164, 0.155563, 0.106371, 0.066489, 0.040095, 0.040095, 0.026239, 0.023403, 0.029807, 0.042838, 0.058383, 0.078069, 0.078069, 0.101040, 0.124823, 0.147091, 0.166549, 0.182424, 0.182434, 0.194214, 0.188748, 0.153511, 0.115995, 0.088369, 0.070459, 0.070459, 0.061618, 0.060732, 0.066479, 0.075736, 0.086955, 0.101819, 0.101819, 0.119642, 0.137582, 0.154175, 0.168494, 0.180041, 0.182915, 0.186821, 0.164822, 0.120007, 0.080485, 0.053068, 0.037562, 0.037562, 0.032710, 0.036857, 0.048056, 0.062023, 0.079144, 0.099841, 0.099841, 0.122086, 0.143306, 0.162182, 0.177865, 0.189951, 0.187753, 0.191659, 0.163063, 0.127724, 0.100938, 0.082954, 0.073265, 0.073265, 0.070976, 0.074897, 0.082967, 0.091960, 0.104382, 0.119823, 0.119823, 0.136136, 0.151474, 0.164960, 0.176032, 0.184200, 0.186011, 0.174292, 0.130093, 0.080028, 0.042506, 0.019487, 0.009622, 0.009622, 0.011058, 0.021676, 0.037590, 0.056739, 0.080195, 0.106318, 0.106318, 0.131914, 0.155160, 0.174865, 0.190456, 0.199612, 0.202868, 0.179430, 0.134084, 0.092791, 0.063293, 0.045462, 0.038244, 0.038244, 0.040138, 0.049161, 0.061128, 0.076968, 0.096946, 0.118814, 0.118814, 0.139931, 0.158918, 0.174880, 0.187366, 0.188447, 0.190215, 0.151153, 0.095123, 0.049103, 0.018884, 0.003399, 0.000500, 0.000500, 0.008050, 0.023209, 0.041775, 0.065236, 0.092205, 0.119729, 0.119729, 0.145409, 0.167755, 0.185945, 0.199196, 0.190793, 0.189046, 0.146077, 0.095497, 0.057178, 0.032623, 0.020715, 0.019830, 0.019830, 0.028044, 0.041408, 0.058341, 0.079960, 0.104582, 0.129019, 0.129019, 0.151512, 0.170812, 0.186316, 0.194757, 0.168432, 0.171075, 0.112481, 0.062404, 0.027620, 0.007788, 0.001235, 0.005742, 0.005742, 0.019101, 0.036461, 0.058231, 0.084229, 0.111800, 0.138080, 0.138080, 0.161462, 0.180859, 0.195803, 0.197593, 0.162434, 0.112375, 0.112375, 0.071333, 0.043651, 0.028541, 0.024569, 0.029959, 0.029959, 0.041784, 0.056522, 0.076060, 0.099116, 0.122913, 0.145305, 0.145305, 0.164975, 0.181099, 0.192819, 0.180114, 0.131131, 0.080191, 0.080191, 0.042421, 0.019194, 0.009203, 0.010550, 0.021161, 0.021161, 0.036880, 0.056144, 0.079840, 0.106208, 0.131944, 0.155311, 0.155311, 0.175091, 0.190707, 0.198853, 0.174659, 0.127819, 0.085146, 0.085146, 0.055041, 0.037214, 0.030520, 0.033310, 0.043424, 0.043424, 0.056615, 0.073841, 0.095126, 0.118128, 0.140207, 0.159976, 0.159976, 0.176512, 0.189341, 0.188239, 0.147865, 0.092073, 0.047407, 0.047407, 0.018355, 0.003734, 0.001518, 0.009747, 0.025064, 0.025064, 0.043889, 0.067595, 0.094626, 0.121957, 0.147318, 0.169295, 0.169295, 0.187096, 0.199661, 0.188300, 0.143334, 0.096517, 0.061578, 0.061578, 0.039445, 0.029077, 0.028953, 0.037233, 0.049714, 0.049714, 0.065775, 0.086285, 0.109810, 0.132958, 0.154117, 0.172174, 0.172174, 0.186562, 0.193424, 0.165605, 0.111456, 0.062899, 0.029566, 0.029566, 0.010766, 0.004840, 0.009796, 0.023079, 0.040064, 0.040064, 0.061710, 0.087330, 0.114327, 0.139936, 0.162632, 0.181405, 0.181405, 0.195777, 0.194886, 0.156217, 0.105241, 0.064763, 0.037963, 0.037963, 0.023911, 0.021068, 0.027614, 0.040233, 0.056014, 0.056014, 0.076558, 0.100436, 0.124788, 0.147490, 0.167264, 0.183363, 0.183363, 0.194570, 0.180786, 0.132074, 0.080502, 0.042649, 0.019360, 0.019360, 0.009291, 0.010572, 0.021102, 0.036417, 0.055732, 0.055732, 0.079592, 0.106003, 0.131736, 0.155102, 0.174910, 0.190572, 0.190572, 0.197539, 0.169591, 0.118251, 0.073554, 0.042747, 0.025148, 0.025148, 0.019345, 0.023525, 0.035249, 0.050137, 0.069528, 0.069528, 0.092878, 0.117540, 0.141022, 0.161884, 0.179216, 0.192506, 0.192506, 0.190344, 0.153340, 0.108658, 0.073526, 0.050487, 0.038703, 0.038703, 0.036826, 0.043183, 0.054516, 0.068434, 0.086768, 0.086768, 0.108389, 0.130326, 0.150704, 0.168338, 0.182623, 0.192171, 0.192171, 0.175420, 0.127218, 0.079979, 0.046061, 0.025727, 0.017672, 0.017672, 0.020119, 0.030961, 0.045784, 0.064389, 0.087072, 0.087072, 0.111953, 0.136010, 0.157729, 0.176010, 0.190367, 0.195788, 0.195788, 0.168470, 0.124933, 0.088476, 0.063407, 0.049186, 0.044689, 0.044689, 0.048423, 0.058171, 0.070021, 0.085973, 0.105272, 0.105272, 0.125757, 0.145229, 0.162531, 0.176890, 0.187843, 0.182779, 0.182779, 0.141439, 0.091609, 0.053433, 0.029186, 0.017737, 0.017416, 0.017416, 0.026228, 0.040540, 0.057822, 0.079538, 0.104397, 0.104397, 0.129203, 0.151991, 0.171530, 0.187182, 0.197507, 0.181956, 0.181956, 0.138114, 0.095067, 0.063772, 0.044470, 0.036108, 0.037201, 0.037201, 0.045876, 0.057817, 0.073470, 0.093224, 0.115321, 0.115321, 0.136872, 0.156444, 0.173053, 0.186200, 0.189401, 0.154354, 0.154354, 0.100390, 0.056437, 0.027388, 0.012156, 0.009063, 0.016102, 0.016102, 0.030450, 0.047797, 0.069591, 0.094968, 0.121148, 0.121148, 0.145637, 0.167004, 0.184448, 0.197403, 0.192573, 0.157064, 0.157064, 0.118177, 0.088105, 0.068259, 0.057995, 0.056212, 0.061500, 0.061500, 0.070527, 0.081951, 0.097466, 0.115965, 0.134756, 0.134756, 0.152246, 0.167434, 0.179788, 0.187254, 0.164824, 0.116006, 0.116006, 0.073410, 0.044177, 0.027770, 0.022789, 0.027448, 0.039578, 0.039578, 0.054736, 0.073110, 0.095350, 0.119289, 0.142089, 0.142089, 0.162347, 0.179144, 0.192065, 0.193913, 0.158078, 0.105946, 0.105946, 0.064754, 0.037380, 0.022883, 0.019741, 0.026092, 0.039123, 0.039123, 0.054898, 0.075105, 0.098901, 0.123526, 0.146547, 0.146547, 0.166647, 0.183027, 0.195095, 0.186803, 0.143820, 0.099652, 0.099652, 0.067274, 0.046805, 0.037340, 0.037436, 0.045400, 0.057608, 0.057608, 0.072441, 0.091283, 0.112943, 0.134433, 0.154138, 0.154138, 0.170994, 0.184462, 0.192297, 0.170978, 0.124647, 0.082025, 0.082025, 0.052039, 0.034502, 0.028199, 0.031446, 0.042163, 0.056007, 0.056007, 0.073502, 0.094992, 0.118297, 0.140635, 0.160603, 0.160603, 0.177261, 0.190162, 0.191366, 0.154553, 0.099412, 0.053703, 0.053703, 0.023401, 0.007408, 0.003964, 0.011013, 0.025509, 0.043351, 0.043351, 0.066119, 0.092453, 0.119483, 0.144754, 0.166827, 0.166827, 0.184849, 0.198078, 0.190315, 0.145738, 0.094559, 0.055518, 0.055518, 0.030442, 0.018235, 0.017261, 0.025549, 0.039105, 0.056386, 0.056386, 0.078481, 0.103535, 0.128417, 0.151307, 0.170967, 0.170967, 0.186747, 0.195880, 0.172876, 0.121720, 0.074656, 0.041536, 0.041536, 0.022142, 0.015054, 0.018479, 0.030068, 0.045396, 0.064833, 0.064833, 0.088548, 0.113961, 0.138326, 0.160106, 0.178277, 0.178277, 0.192370, 0.193853, 0.157402, 0.105277, 0.062782, 0.034493, 0.034493, 0.019438, 0.016044, 0.022444, 0.035489, 0.051617, 0.072617, 0.072617, 0.097161, 0.122340, 0.145913, 0.166501, 0.183320, 0.183320, 0.195514, 0.184120, 0.134241, 0.081572, 0.042650, 0.018489, 0.018489, 0.007766, 0.008587, 0.018912, 0.034403, 0.053594, 0.077418, 0.077418, 0.104127, 0.130277, 0.154104, 0.174355, 0.190427, 0.190427, 0.198977, 0.174267, 0.123836, 0.077137, 0.044204, 0.024795, 0.024795, 0.017532, 0.020633, 0.031767, 0.046419, 0.065512, 0.088929, 0.088929, 0.114118, 0.138246, 0.159870, 0.177938, 0.191963, 0.191963, 0.191517, 0.151591, 0.097968, 0.054721, 0.026316, 0.011674, 0.011674, 0.009095, 0.016533, 0.030801, 0.048329, 0.070598, 0.096347, 0.096347, 0.122575, 0.146963, 0.168176, 0.185406, 0.197684, 0.197684, 0.185514, 0.138115, 0.087333, 0.049372, 0.025563, 0.014688, 0.014688, 0.015001, 0.024451, 0.038779, 0.056931, 0.079726, 0.105380, 0.105380, 0.130536, 0.153493, 0.173070, 0.188674, 0.196402, 0.196402, 0.171324, 0.123925, 0.080883, 0.050725, 0.033157, 0.026912, 0.026912, 0.030300, 0.041020, 0.054779, 0.072770, 0.094796, 0.118416, 0.118416, 0.140984, 0.161094, 0.177854, 0.190794, 0.189660, 0.189660, 0.152815, 0.105877, 0.069007, 0.044859, 0.032536, 0.030587, 0.030587, 0.037282, 0.049417, 0.064126, 0.083444, 0.105784, 0.128496, 0.128496, 0.149614, 0.167917, 0.182780, 0.193099, 0.178712, 0.178712, 0.130497, 0.081414, 0.045613, 0.023794, 0.014644, 0.016369, 0.016369, 0.026914, 0.041923, 0.060516, 0.083478, 0.108929, 0.133677, 0.133677, 0.156112, 0.175062, 0.190024, 0.196554, 0.169122, 0.169122, 0.119605, 0.076168, 0.046157, 0.028995, 0.023313, 0.027380, 0.027380, 0.038756, 0.053055, 0.071997, 0.094720, 0.118804, 0.141722, 0.141722, 0.162079, 0.178964, 0.191919, 0.189788, 0.152934, 0.152934, 0.106938, 0.070598, 0.046785, 0.034602, 0.032646, 0.039208, 0.039208, 0.051064, 0.065592, 0.084433, 0.106455, 0.128819, 0.149618, 0.149618, 0.167694, 0.182345, 0.192332, 0.176643, 0.130579, 0.130579, 0.087113, 0.055949, 0.037249, 0.029812, 0.032039, 0.042011, 0.042011, 0.055467, 0.072192, 0.092994, 0.116031, 0.138329, 0.158427, 0.158427, 0.175342, 0.188584, 0.193017, 0.163071, 0.114869, 0.114869, 0.073641, 0.045623, 0.030114, 0.025724, 0.030699, 0.042624, 0.042624, 0.057157, 0.075848, 0.098344, 0.121965, 0.144289, 0.163988, 0.163988, 0.180226, 0.192489, 0.188531, 0.149047, 0.100716, 0.100716, 0.063300, 0.039036, 0.026987, 0.025609, 0.033071, 0.045878, 0.045878, 0.061665, 0.081893, 0.105317, 0.128910, 0.150715, 0.169540, 0.169540, 0.184736, 0.194694, 0.178200, 0.130933, 0.085061, 0.085061, 0.052189, 0.032301, 0.024226, 0.026258, 0.036402, 0.050247, 0.050247, 0.067842, 0.089499, 0.113348, 0.136465, 0.157369, 0.175001, 0.175001, 0.188881, 0.193274, 0.162881, 0.114156, 0.073384, 0.073384, 0.045830, 0.030656, 0.026519, 0.031636, 0.043449, 0.057838, 0.057838, 0.076684, 0.099105, 0.122569, 0.144718, 0.164244, 0.180331, 0.180331, 0.192449, 0.186794, 0.146985, 0.101295, 0.066624, 0.066624, 0.044389, 0.033615, 0.032900, 0.040454, 0.052849, 0.067914, 0.067914, 0.087185, 0.109520, 0.131884, 0.152478, 0.170176, 0.184402, 0.184402, 0.193319, 0.173332, 0.125032, 0.081511, 0.050926, 0.050926, 0.032978, 0.026400, 0.029555, 0.040346, 0.054383, 0.072029, 0.072029, 0.093538, 0.117051, 0.139683, 0.159959, 0.176916, 0.190106, 0.190106, 0.192898, 0.158903, 0.107389, 0.064929, 0.036494, 0.036494, 0.021196, 0.017489, 0.023539, 0.036559, 0.052440, 0.072800, 0.072800, 0.096785, 0.121565, 0.144884, 0.165359, 0.182155, 0.194656, 0.194656, 0.187920, 0.149046, 0.107835, 0.076709, 0.056703, 0.056703, 0.047001, 0.046297, 0.053093, 0.063798, 0.077055, 0.094316, 0.094316, 0.114465, 0.134672, 0.153324, 0.169397, 0.182342, 0.190090, 0.190090, 0.171456, 0.132587, 0.097222, 0.072128, 0.057338, 0.057338, 0.051864, 0.054341, 0.063089, 0.074035, 0.087843, 0.105509, 0.105509, 0.125113, 0.143948, 0.160821, 0.174931, 0.185899, 0.186262, 0.186262, 0.150116, 0.096267, 0.051589, 0.022239, 0.007099, 0.007099, 0.004343, 0.011900, 0.026756, 0.044733, 0.067593, 0.093895, 0.093895, 0.120825, 0.145931, 0.167797, 0.185581, 0.198587, 0.191091, 0.191091, 0.148171, 0.098719, 0.060763, 0.036247, 0.024164, 0.024164, 0.022930, 0.030670, 0.043529, 0.059747, 0.080614, 0.104712, 0.104712, 0.128718, 0.150871, 0.169959, 0.185341, 0.194435, 0.172865, 0.172865, 0.123110, 0.076053, 0.042768, 0.023171, 0.015878, 0.015878, 0.019064, 0.030386, 0.045277, 0.064413, 0.087946, 0.113335, 0.113335, 0.137704, 0.159538, 0.177798, 0.192001, 0.194199, 0.160750, 0.160750, 0.112718, 0.072656, 0.045736, 0.031101, 0.027377, 0.027377, 0.032806, 0.044585, 0.059047, 0.078083, 0.100702, 0.124048, 0.124048, 0.145991, 0.165231, 0.181014, 0.192544, 0.181902, 0.134300, 0.134300, 0.081826, 0.042763, 0.018499, 0.007696, 0.008466, 0.008466, 0.018721, 0.034135, 0.053219, 0.076932, 0.103579, 0.129725, 0.129725, 0.153574, 0.173856, 0.189994, 0.198514, 0.171804, 0.114870, 0.114870, 0.062842, 0.026553, 0.005672, 0.000135, 0.003013, 0.003013, 0.016025, 0.033144, 0.054838, 0.081086, 0.109130, 0.135974, 0.135974, 0.159961, 0.179958, 0.195446, 0.197000, 0.159601, 0.105326, 0.105326, 0.060684, 0.030776, 0.014655, 0.010694, 0.016920, 0.016920, 0.030082, 0.046713, 0.068451, 0.093910, 0.120033, 0.144526, 0.144526, 0.165984, 0.183524, 0.196125, 0.183250, 0.134975, 0.086115, 0.086115, 0.049940, 0.027525, 0.017677, 0.018659, 0.028473, 0.028473, 0.042979, 0.060897, 0.083175, 0.108259, 0.132774, 0.155074, 0.155074, 0.173993, 0.188974, 0.196253, 0.169712, 0.120136, 0.075648, 0.075648, 0.044701, 0.026846, 0.020765, 0.024662, 0.036160, 0.036160, 0.050769, 0.069742, 0.092737, 0.117289, 0.140708, 0.161571, 0.161571, 0.178928, 0.192285, 0.189688, 0.146214, 0.090305, 0.046220, 0.046220, 0.017694, 0.003570, 0.001772, 0.010369, 0.025802, 0.025802, 0.044562, 0.068156, 0.095353, 0.122859, 0.148305, 0.170282, 0.170282, 0.188011, 0.200333, 0.186302, 0.134732, 0.081729, 0.042690, 0.042690, 0.018413, 0.007578, 0.008342, 0.018561, 0.033576, 0.033576, 0.052763, 0.076719, 0.103558, 0.129822, 0.153760, 0.174113, 0.174113, 0.190273, 0.198028, 0.172595, 0.128269, 0.089527, 0.062439, 0.062439, 0.046615, 0.040933, 0.043922, 0.053447, 0.065403, 0.065403, 0.081344, 0.101147, 0.122421, 0.142798, 0.160992, 0.176163, 0.176163, 0.187889, 0.184778, 0.141992, 0.087314, 0.044729, 0.017488, 0.017488, 0.004356, 0.003329, 0.012459, 0.027949, 0.046852, 0.046852, 0.070588, 0.097508, 0.124497, 0.149438, 0.170920, 0.188212, 0.188212, 0.199903, 0.183105, 0.128507, 0.073192, 0.032977, 0.008437, 0.008437, 0.000224, 0.001228, 0.012051, 0.028265, 0.048813, 0.048813, 0.074154, 0.102160, 0.129423, 0.154238, 0.175292, 0.191965, 0.191965, 0.199360, 0.171773, 0.123088, 0.080460, 0.050852, 0.033716, 0.033716, 0.027776, 0.031335, 0.042008, 0.055494, 0.073572, 0.073571, 0.095559, 0.118877, 0.141140, 0.161017, 0.177579, 0.190325, 0.190325, 0.186779, 0.144943, 0.094093, 0.055034, 0.029965, 0.017809, 0.017809, 0.016883, 0.025230, 0.039261, 0.056384, 0.078088, 0.078094, 0.102966, 0.127917, 0.150887, 0.170658, 0.186559, 0.197082, 0.197082, 0.181090, 0.134996, 0.090736, 0.058788, 0.039247, 0.031011, 0.031011, 0.032516, 0.041830, 0.054697, 0.071056, 0.091640, 0.091634, 0.114583, 0.136886, 0.157058, 0.174127, 0.187596, 0.192044, 0.192044, 0.162553, 0.114234, 0.072014, 0.043307, 0.027354, 0.022772, 0.022772, 0.027762, 0.039725, 0.054522, 0.073799, 0.096743, 0.096752, 0.120830, 0.143619, 0.163719, 0.180325, 0.192868, 0.187186, 0.187186, 0.142432, 0.088377, 0.047124, 0.020783, 0.008160, 0.007416, 0.007416, 0.016501, 0.031554, 0.050108, 0.073416, 0.099761, 0.099747, 0.126038, 0.150271, 0.171092, 0.187858, 0.198789, 0.182175, 0.182175, 0.141601, 0.105561, 0.079391, 0.063261, 0.056322, 0.057357, 0.057357, 0.064728, 0.074475, 0.087233, 0.103886, 0.122718, 0.122720, 0.141106, 0.157812, 0.171957, 0.183159, 0.184954, 0.154121, 0.154121, 0.111429, 0.078108, 0.056282, 0.045118, 0.043353, 0.049422, 0.049422, 0.060893, 0.073842, 0.090575, 0.110471, 0.131037, 0.131039, 0.150250, 0.166990, 0.180608, 0.190633, 0.183515, 0.145375, 0.145375, 0.104321, 0.073995, 0.054804, 0.045884, 0.045911, 0.053306, 0.053306, 0.064478, 0.078105, 0.095589, 0.115797, 0.135978, 0.134980, 0.154511, 0.170392, 0.183091, 0.190520, 0.167606, 0.115850, 0.115850, 0.069804, 0.037943, 0.019781, 0.013842, 0.018241, 0.030712, 0.030712, 0.046695, 0.066457, 0.090053, 0.115443, 0.139723, 0.137929, 0.161367, 0.179375, 0.193267, 0.195707, 0.163711, 0.120374, 0.120374, 0.085655, 0.062217, 0.049392, 0.046019, 0.050592, 0.060697, 0.060697, 0.072605, 0.088615, 0.108040, 0.128408, 0.147610, 0.144974, 0.164505, 0.178419, 0.188743, 0.180153, 0.137425, 0.089990, 0.089990, 0.054010, 0.031487, 0.021321, 0.021813, 0.031043, 0.045108, 0.045108, 0.062208, 0.083691, 0.108044, 0.132087, 0.154047, 0.153229, 0.172760, 0.187676, 0.196382, 0.176213, 0.132459, 0.091897, 0.091897, 0.062956, 0.045599, 0.038769, 0.040943, 0.050170, 0.062208, 0.062208, 0.077851, 0.097642, 0.119341, 0.140283, 0.159129, 0.159328, 0.174953, 0.187339, 0.188306, 0.152110, 0.097787, 0.053003, 0.053003, 0.023484, 0.008111, 0.005147, 0.012507, 0.027052, 0.044768, 0.044768, 0.067521, 0.093813, 0.120706, 0.145796, 0.167647, 0.165908, 0.185439, 0.198397, 0.189592, 0.144322, 0.095226, 0.058183, 0.058183, 0.034561, 0.023280, 0.022768, 0.031095, 0.044191, 0.060772, 0.060772, 0.081959, 0.106149, 0.130130, 0.152177, 0.171097, 0.170644, 0.186269, 0.194597, 0.170335, 0.120261, 0.073917, 0.041430, 0.041430, 0.022555, 0.015848, 0.019533, 0.031239, 0.046489, 0.065835, 0.065835, 0.089446, 0.114745, 0.138966, 0.160606, 0.178633, 0.192592, 0.192592, 0.193283, 0.155888, 0.103304, 0.060619, 0.032316, 0.032316, 0.017382, 0.014210, 0.020897, 0.034199, 0.050656, 0.071927, 0.071927, 0.096762, 0.122212, 0.146021, 0.166815, 0.183785, 0.196040, 0.196040, 0.186165, 0.143634, 0.097872, 0.063441, 0.041606, 0.041606, 0.031350, 0.031151, 0.039261, 0.051573, 0.067182, 0.087214, 0.087214, 0.110163, 0.132794, 0.153555, 0.171320, 0.185528, 0.192794, 0.192794, 0.169351, 0.123850, 0.081718, 0.052239, 0.035114, 0.035114, 0.029109, 0.032533, 0.043175, 0.056612, 0.074129, 0.095722, 0.095722, 0.118961, 0.141180, 0.161014, 0.177548, 0.190325, 0.188255, 0.188255, 0.146739, 0.092632, 0.049749, 0.021967, 0.008094, 0.008094, 0.006342, 0.014620, 0.029568, 0.047717, 0.070626, 0.096893, 0.096893, 0.123457, 0.148075, 0.169394, 0.186639, 0.198743, 0.185504, 0.185504, 0.136472, 0.085330, 0.047489, 0.023886, 0.013294, 0.013294, 0.013936, 0.023700, 0.038199, 0.056604, 0.079691, 0.105631, 0.105631, 0.131028, 0.154162, 0.173834, 0.189467, 0.196551, 0.168230, 0.168230, 0.116589, 0.070795, 0.039158, 0.021102, 0.015185, 0.015185, 0.019538, 0.031652, 0.046977, 0.066786, 0.090797, 0.116248, 0.116248, 0.140466, 0.161971, 0.179815, 0.193518, 0.192500, 0.156380, 0.156380, 0.111100, 0.075429, 0.051858, 0.039569, 0.037236, 0.037236, 0.043224, 0.054312, 0.067897, 0.085830, 0.107077, 0.128802, 0.128802, 0.149088, 0.166757, 0.181178, 0.191030, 0.174218, 0.124378, 0.124378, 0.073785, 0.037087, 0.015088, 0.006321, 0.008846, 0.008846, 0.020482, 0.036698, 0.056667, 0.081062, 0.107984, 0.134019, 0.134019, 0.157487, 0.177202, 0.192661, 0.199366, 0.174246, 0.132668, 0.132668, 0.095808, 0.069841, 0.054495, 0.048751, 0.051222, 0.051222, 0.059817, 0.070448, 0.085194, 0.103769, 0.123931, 0.143289, 0.143289, 0.160615, 0.175091, 0.186282, 0.181391, 0.138306, 0.085856, 0.085856, 0.045378, 0.019756, 0.007795, 0.007614, 0.017138, 0.017138, 0.032746, 0.051484, 0.074686, 0.101030, 0.127320, 0.151466, 0.151466, 0.172151, 0.188701, 0.199692, 0.182745, 0.134893, 0.089116, 0.089116, 0.055894, 0.035488, 0.026785, 0.028157, 0.037641, 0.037641, 0.050805, 0.067602, 0.088765, 0.112437, 0.135486, 0.156403, 0.156403, 0.174106, 0.188081, 0.192790, 0.161574, 0.111107, 0.068475, 0.068475, 0.039692, 0.023898, 0.019650, 0.025108, 0.037706, 0.037706, 0.053030, 0.072793, 0.096320, 0.121009, 0.144268, 0.164729, 0.164729, 0.181548, 0.194191, 0.188904, 0.146343, 0.095607, 0.057022, 0.057022, 0.032208, 0.020092, 0.019076, 0.027224, 0.040872, 0.040872, 0.057621, 0.078978, 0.103392, 0.127838, 0.150415, 0.169894, 0.169894, 0.185596, 0.195780, 0.178522, 0.134930, 0.094421, 0.065438, 0.065438, 0.047881, 0.040714, 0.042512, 0.051449, 0.063317, 0.063317, 0.078226, 0.097294, 0.118707, 0.139475, 0.158242, 0.174067, 0.174067, 0.186526, 0.189847, 0.159373, 0.111728, 0.071991, 0.045363, 0.045363, 0.030971, 0.027405, 0.032975, 0.045027, 0.059540, 0.059540, 0.078359, 0.100718, 0.124014, 0.145907, 0.165158, 0.180958, 0.180958, 0.192773, 0.185832, 0.143875, 0.097734, 0.062937, 0.040819, 0.040819, 0.030379, 0.030110, 0.038240, 0.051064, 0.066783, 0.066783, 0.086627, 0.109425, 0.132164, 0.153078, 0.171027, 0.185428, 0.185428, 0.194218, 0.172247, 0.120426, 0.073564, 0.040731, 0.021612, 0.021612, 0.014807, 0.018449, 0.030292, 0.045648, 0.064980, 0.064980, 0.088476, 0.114152, 0.138769, 0.160740, 0.179036, 0.193188, 0.193188, 0.195689, 0.160229, 0.111050, 0.072230, 0.046286, 0.032381, 0.032381, 0.029143, 0.034829, 0.046781, 0.061011, 0.079616, 0.079616, 0.101801, 0.124873, 0.146541, 0.165539, 0.181104, 0.192593, 0.192593, 0.183386, 0.138067, 0.089090, 0.052701, 0.029925, 0.019602, 0.019602, 0.020062, 0.029338, 0.043483, 0.060662, 0.082322, 0.082322, 0.106884, 0.131145, 0.153355, 0.172324, 0.187457, 0.196424, 0.196424, 0.174774, 0.123830, 0.074748, 0.039851, 0.019106, 0.011121, 0.011121, 0.014016, 0.025451, 0.040833, 0.060479, 0.084661, 0.084661, 0.110839, 0.136012, 0.158631, 0.177589, 0.192374, 0.194774, 0.194774, 0.158469, 0.101701, 0.054021, 0.022108, 0.004963, 0.000695, 0.000695, 0.007136, 0.021351, 0.039149, 0.062169, 0.089020, 0.089020, 0.116749, 0.142772, 0.165622, 0.184343, 0.198140, 0.189704, 0.189704, 0.144946, 0.094457, 0.056155, 0.031655, 0.019859, 0.019111, 0.019111, 0.027488, 0.040960, 0.057898, 0.079576, 0.104321, 0.104321, 0.128862, 0.151436, 0.170834, 0.186414, 0.195335, 0.171993, 0.171993, 0.120415, 0.072680, 0.039174, 0.019593, 0.012528, 0.016100, 0.016100, 0.027903, 0.043298, 0.063018, 0.087165, 0.113067, 0.113067, 0.137888, 0.160065, 0.178588, 0.192948, 0.194141, 0.156089, 0.156089, 0.100197, 0.054189, 0.023624, 0.007406, 0.003784, 0.010686, 0.010686, 0.024925, 0.042560, 0.065323, 0.091854, 0.119050, 0.119050, 0.144500, 0.166726, 0.184884, 0.198023, 0.186868, 0.138576, 0.138576, 0.085446, 0.045539, 0.020406, 0.008779, 0.008826, 0.018465, 0.018465, 0.033258, 0.052031, 0.075619, 0.102162, 0.128290, 0.128290, 0.152231, 0.172683, 0.189028, 0.198058, 0.176181, 0.130454, 0.130454, 0.088463, 0.058750, 0.041032, 0.034172, 0.036601, 0.046208, 0.046208, 0.058624, 0.075088, 0.095805, 0.118324, 0.139993, 0.139993, 0.159444, 0.175738, 0.188441, 0.187425, 0.147480, 0.093005, 0.093005, 0.048972, 0.020288, 0.005816, 0.003672, 0.011814, 0.026825, 0.026825, 0.045126, 0.068374, 0.094968, 0.121898, 0.146934, 0.146934, 0.168679, 0.186296, 0.198793, 0.187930, 0.145702, 0.101261, 0.101261, 0.067821, 0.046499, 0.036368, 0.035988, 0.043630, 0.055254, 0.055254, 0.070087, 0.089339, 0.111451, 0.133279, 0.153329, 0.153329, 0.170509, 0.184275, 0.190581, 0.164554, 0.118906, 0.079077, 0.079077, 0.051736, 0.036370, 0.031720, 0.036111, 0.047274, 0.060814, 0.060814, 0.078324, 0.099591, 0.122218, 0.143729, 0.162796, 0.162796, 0.178593, 0.190668, 0.188935, 0.155163, 0.115502, 0.084750, 0.084750, 0.064526, 0.054142, 0.052481, 0.058067, 0.067999, 0.079718, 0.079718, 0.095564, 0.114408, 0.133695, 0.151645, 0.167232, 0.167232, 0.179895, 0.188542, 0.173361, 0.123374, 0.071481, 0.033785, 0.033785, 0.011171, 0.002151, 0.004601, 0.016503, 0.033013, 0.053467, 0.053467, 0.078446, 0.105992, 0.132684, 0.156777, 0.177074, 0.177074, 0.193018, 0.200278, 0.173771, 0.124089, 0.079294, 0.047965, 0.047965, 0.029610, 0.022903, 0.026167, 0.036960, 0.050838, 0.069166, 0.069166, 0.091897, 0.116177, 0.139430, 0.160216, 0.177575, 0.177575, 0.190988, 0.187515, 0.144790, 0.089729, 0.046784, 0.019112, 0.019112, 0.005524, 0.004096, 0.012843, 0.027966, 0.046556, 0.070062, 0.070062, 0.096846, 0.123782, 0.148712, 0.170219, 0.187576, 0.187576, 0.199380, 0.185022, 0.138027, 0.090913, 0.056504, 0.035113, 0.035113, 0.025623, 0.026406, 0.035563, 0.048661, 0.065307, 0.086590, 0.086590, 0.110440, 0.133735, 0.154980, 0.173049, 0.187403, 0.187403, 0.192347, 0.159870, 0.103951, 0.055432, 0.022697, 0.004858, 0.004858, 0.000267, 0.005945, 0.020227, 0.037865, 0.060439, 0.087095, 0.087095, 0.114942, 0.141196, 0.164346, 0.183394, 0.197803, 0.197803, 0.195297, 0.159576, 0.116323, 0.082040, 0.059133, 0.046923, 0.046923, 0.044191, 0.049400, 0.059277, 0.071546, 0.088389, 0.108691, 0.108691, 0.129430, 0.148837, 0.165829, 0.179733, 0.188862, 0.188862, 0.170022, 0.121122, 0.074621, 0.041792, 0.022589, 0.015638, 0.015638, 0.019113, 0.030793, 0.046047, 0.065006, 0.088273, 0.113690, 0.113690, 0.138103, 0.159946, 0.178201, 0.192385, 0.195893, 0.195893, 0.163505, 0.116968, 0.079433, 0.054070, 0.040167, 0.036462, 0.036462, 0.041351, 0.052322, 0.065383, 0.082619, 0.103519, 0.125512, 0.125512, 0.146267, 0.164528, 0.179567, 0.190852, 0.184108, 0.184108, 0.143542, 0.100195, 0.067562, 0.046881, 0.037221, 0.037164, 0.037164, 0.045013, 0.057098, 0.071640, 0.090397, 0.112157, 0.133875, 0.133875, 0.153825, 0.170894, 0.184562, 0.192885, 0.172761, 0.172761, 0.127879, 0.086037, 0.056313, 0.038734, 0.032127, 0.034890, 0.034890, 0.045018, 0.058176, 0.074740, 0.095297, 0.117870, 0.139654, 0.139654, 0.159244, 0.175667, 0.188514, 0.190425, 0.156015, 0.156015, 0.108793, 0.072104, 0.047905, 0.035337, 0.033009, 0.039236, 0.039236, 0.051342, 0.065445, 0.083504, 0.104949, 0.127177, 0.148011, 0.148011, 0.166242, 0.181136, 0.192129, 0.182765, 0.137167, 0.137167, 0.091196, 0.057764, 0.037057, 0.027976, 0.028955, 0.038151, 0.038151, 0.051677, 0.067972, 0.088145, 0.111187, 0.133971, 0.154787, 0.154787, 0.172544, 0.186661, 0.194878, 0.173989, 0.133059, 0.133059, 0.099700, 0.076533, 0.063011, 0.058192, 0.060831, 0.069210, 0.069210, 0.079343, 0.092091, 0.108787, 0.127408, 0.145314, 0.161328, 0.161328, 0.174718, 0.185079, 0.184257, 0.143648, 0.086808, 0.086808, 0.041068, 0.011519, 0.000302, 0.000112, 0.006670, 0.022180, 0.022180, 0.040776, 0.064394, 0.091720, 0.119670, 0.145699, 0.168340, 0.168340, 0.186735, 0.200103, 0.190270, 0.142424, 0.088466, 0.088466, 0.047291, 0.020988, 0.008396, 0.007649, 0.016694, 0.031242, 0.031242, 0.049675, 0.073174, 0.099946, 0.126499, 0.150918, 0.171867, 0.171867, 0.188657, 0.198044, 0.173031, 0.120667, 0.072557, 0.072557, 0.038679, 0.018827, 0.011555, 0.015024, 0.026809, 0.042247, 0.042247, 0.062011, 0.086286, 0.112450, 0.137541, 0.159986, 0.178725, 0.178725, 0.193263, 0.195112, 0.159477, 0.107001, 0.063477, 0.063477, 0.034311, 0.018545, 0.014613, 0.020635, 0.033431, 0.049285, 0.049285, 0.070251, 0.094963, 0.120456, 0.144402, 0.165429, 0.182668, 0.182668, 0.195280, 0.184798, 0.135287, 0.079663, 0.037849, 0.037849, 0.011655, 0.000777, 0.000928, 0.010845, 0.026510, 0.046257, 0.046257, 0.071085, 0.099046, 0.126583, 0.151814, 0.173362, 0.190562, 0.190562, 0.199961, 0.174399, 0.119807, 0.069443, 0.034017, 0.034017, 0.013204, 0.005502, 0.008916, 0.020974, 0.036802, 0.057500, 0.057500, 0.082895, 0.110178, 0.136328, 0.159726, 0.179249, 0.194400, 0.194400, 0.195111, 0.155524, 0.099825, 0.054795, 0.024949, 0.024949, 0.009218, 0.005878, 0.012878, 0.026883, 0.044298, 0.066787, 0.066787, 0.092982, 0.119744, 0.144795, 0.166700, 0.184586, 0.197440, 0.197440, 0.186061, 0.141157, 0.093823, 0.058507, 0.036229, 0.036237, 0.025937, 0.026053, 0.034672, 0.047490, 0.063859, 0.084817, 0.084817, 0.108817, 0.132402, 0.153968, 0.172373, 0.187028, 0.193954, 0.193954, 0.165507, 0.109958, 0.060584, 0.026671, 0.007576, 0.007576, 0.001618, 0.006661, 0.020210, 0.037342, 0.059173, 0.085378, 0.085378, 0.113085, 0.139389, 0.162730, 0.182052, 0.196830, 0.196631, 0.196631, 0.159717, 0.109244, 0.068056, 0.040486, 0.025643, 0.025643, 0.022067, 0.027941, 0.039858, 0.054799, 0.074746, 0.098536, 0.098536, 0.122984, 0.145882, 0.165924, 0.182332, 0.193888, 0.178368, 0.178368, 0.124976, 0.068253, 0.026677, 0.003056, 0.000079, 0.000079, 0.000292, 0.009573, 0.025020, 0.045001, 0.070271, 0.098652, 0.098652, 0.126499, 0.151955, 0.173681, 0.191004, 0.199233, 0.172027, 0.172027, 0.121563, 0.076351, 0.044842, 0.026509, 0.020019, 0.020019, 0.023588, 0.034749, 0.048918, 0.067704, 0.090927, 0.115763, 0.115763, 0.139495, 0.160671, 0.178319, 0.191938, 0.189351, 0.148409, 0.148409, 0.097799, 0.058576, 0.033136, 0.020468, 0.018953, 0.018960, 0.026696, 0.040190, 0.056642, 0.077706, 0.101999, 0.126537, 0.126537, 0.149294, 0.168978, 0.184923, 0.195806, 0.180260, 0.130949, 0.130949, 0.081659, 0.045920, 0.024114, 0.014947, 0.016625, 0.016625, 0.027044, 0.041665, 0.060144, 0.083119, 0.108603, 0.133379, 0.133379, 0.155845, 0.174853, 0.189879, 0.195453, 0.164841, 0.112590, 0.112590, 0.067257, 0.036306, 0.018979, 0.013775, 0.018788, 0.018788, 0.031389, 0.047030, 0.067361, 0.091735, 0.117470, 0.141843, 0.141843, 0.163398, 0.181191, 0.194720, 0.190726, 0.149213, 0.098706, 0.098706, 0.059931, 0.034746, 0.022182, 0.020660, 0.028292, 0.028292, 0.041312, 0.057469, 0.078296, 0.102551, 0.127039, 0.149717, 0.149717, 0.169321, 0.185146, 0.195488, 0.176374, 0.123222, 0.071474, 0.071474, 0.034547, 0.012470, 0.003812, 0.006534, 0.018427, 0.018431, 0.034728, 0.055013, 0.079921, 0.107372, 0.133903, 0.157796, 0.157796, 0.177869, 0.193571, 0.198663, 0.165919, 0.113770, 0.070059, 0.070059, 0.040331, 0.023708, 0.018783, 0.023737, 0.035828, 0.035181, 0.050806, 0.070523, 0.094115, 0.118941, 0.142454, 0.163250, 0.163250, 0.180437, 0.193405, 0.185462, 0.137346, 0.081992, 0.040325, 0.040325, 0.014043, 0.002021, 0.001746, 0.011738, 0.027480, 0.027474, 0.046822, 0.071162, 0.098674, 0.126009, 0.151105, 0.172599, 0.172599, 0.189803, 0.200502, 0.180055, 0.135390, 0.097539, 0.070786, 0.070786, 0.054701, 0.048302, 0.050260, 0.058792, 0.069563, 0.069553, 0.083530, 0.101507, 0.121502, 0.140939, 0.158508, 0.173353, 0.173353, 0.185036, 0.186137, 0.149724, 0.099570, 0.060057, 0.034302, 0.034302, 0.021286, 0.019432, 0.026881, 0.040685, 0.056800, 0.056806, 0.077085, 0.100914, 0.125465, 0.148345, 0.168222, 0.184371, 0.184371, 0.196201, 0.187430, 0.146039, 0.103187, 0.070958, 0.050386, 0.050386, 0.040599, 0.040213, 0.047620, 0.058884, 0.072978, 0.072979, 0.091076, 0.112270, 0.133438, 0.152984, 0.169797, 0.183335, 0.183335, 0.191420, 0.170773, 0.124960, 0.084814, 0.056913, 0.040766, 0.040766, 0.035179, 0.038583, 0.048967, 0.061970, 0.078475, 0.078466, 0.098653, 0.120630, 0.141737, 0.160647, 0.176445, 0.188723, 0.188723, 0.189711, 0.154509, 0.106507, 0.068971, 0.044281, 0.031539, 0.031539, 0.029298, 0.035803, 0.048236, 0.062711, 0.081573, 0.081566, 0.103814, 0.126764, 0.148186, 0.166891, 0.182139, 0.193312, 0.193312, 0.184698, 0.140285, 0.090070, 0.052045, 0.027999, 0.016786, 0.016786, 0.016702, 0.025751, 0.039835, 0.057205, 0.079282, 0.079282, 0.104596, 0.129661, 0.152606, 0.172249, 0.187941, 0.197128, 0.197128, 0.175209, 0.126103, 0.079420, 0.046288, 0.026569, 0.018961, 0.018961, 0.021696, 0.032483, 0.046714, 0.065138, 0.088144, 0.089741, 0.113179, 0.137285, 0.158919, 0.177067, 0.191225, 0.192897, 0.192897, 0.157379, 0.108992, 0.069936, 0.043961, 0.030190, 0.027213, 0.027213, 0.033255, 0.045432, 0.060002, 0.079118, 0.101888, 0.101978, 0.125415, 0.147431, 0.166631, 0.182315, 0.193701, 0.183827, 0.183827, 0.139922, 0.092616, 0.057255, 0.035032, 0.024862, 0.025141, 0.025141, 0.033983, 0.047160, 0.063574, 0.084494, 0.108447, 0.108637, 0.132075, 0.153705, 0.172158, 0.186905, 0.194697, 0.168770, 0.168770, 0.114236, 0.063826, 0.028672, 0.008448, 0.001538, 0.005758, 0.005758, 0.018791, 0.035666, 0.057078, 0.083079, 0.110903, 0.110097, 0.137441, 0.161081, 0.180711, 0.195855, 0.197359, 0.161025, 0.161025, 0.110130, 0.068483, 0.040499, 0.025318, 0.021486, 0.027175, 0.027175, 0.039331, 0.054404, 0.074327, 0.097996, 0.122381, 0.121850, 0.145287, 0.165390, 0.181848, 0.193739, 0.181539, 0.136408, 0.136408, 0.091774, 0.059030, 0.038837, 0.030079, 0.031214, 0.040394, 0.040394, 0.053435, 0.069477, 0.089801, 0.112842, 0.135389, 0.136367, 0.155898, 0.173305, 0.187076, 0.193657, 0.167497, 0.118482, 0.118482, 0.075642, 0.046072, 0.029261, 0.023844, 0.028087, 0.039629, 0.039629, 0.053965, 0.072504, 0.095018, 0.119071, 0.141954, 0.142742, 0.162273, 0.179120, 0.192035, 0.190260, 0.149156, 0.095221, 0.095221, 0.052640, 0.024874, 0.010841, 0.008796, 0.016711, 0.031199, 0.031199, 0.048768, 0.071118, 0.097069, 0.123372, 0.147786, 0.145515, 0.168953, 0.186096, 0.198142, 0.186362, 0.144851, 0.103129, 0.103129, 0.072041, 0.052351, 0.043193, 0.043183, 0.050667, 0.061444, 0.061444, 0.075384, 0.093646, 0.114644, 0.135375, 0.154380, 0.155026, 0.170651, 0.183688, 0.189406, 0.162676, 0.115615, 0.074647, 0.074647, 0.046693, 0.031125, 0.026640, 0.031471, 0.043280, 0.057558, 0.057558, 0.075871, 0.098118, 0.121711, 0.144050, 0.163771, 0.160507, 0.180038, 0.192417, 0.190098, 0.151514, 0.101918, 0.062461, 0.062461, 0.036612, 0.023376, 0.021255, 0.028359, 0.041203, 0.056942, 0.056942, 0.077384, 0.101450, 0.125935, 0.148677, 0.168401, 0.184409, 0.184409, 0.195431, 0.180243, 0.131326, 0.081372, 0.044838, 0.044838, 0.022454, 0.012899, 0.014421, 0.024875, 0.039673, 0.058369, 0.058369, 0.081698, 0.107683, 0.132956, 0.155871, 0.175256, 0.190549, 0.190549, 0.197147, 0.169219, 0.119877, 0.076467, 0.046470, 0.046470, 0.029279, 0.023532, 0.027553, 0.038809, 0.052880, 0.071464, 0.071464, 0.094238, 0.118492, 0.141570, 0.162079, 0.179082, 0.192110, 0.192110, 0.188697, 0.148951, 0.103616, 0.069378, 0.047305, 0.047305, 0.036503, 0.035541, 0.042773, 0.054730, 0.069098, 0.087664, 0.087664, 0.109436, 0.131424, 0.151757, 0.169312, 0.183468, 0.192854, 0.192854, 0.175161, 0.123418, 0.071326, 0.033916, 0.011511, 0.011511, 0.002665, 0.005220, 0.017127, 0.033361, 0.053803, 0.078854, 0.078854, 0.106343, 0.132922, 0.156926, 0.177142, 0.193005, 0.199130, 0.199130, 0.169310, 0.118128, 0.073215, 0.042278, 0.024592, 0.024592, 0.018754, 0.022935, 0.034560, 0.049144, 0.068741, 0.092338, 0.092338, 0.117244, 0.140922, 0.161974, 0.179448, 0.192792, 0.188350, 0.188350, 0.147378, 0.099037, 0.061932, 0.038001, 0.026268, 0.026268, 0.025178, 0.032889, 0.045715, 0.061506, 0.081748, 0.105273, 0.105273, 0.128921, 0.150770, 0.169625, 0.184847, 0.194672, 0.175516, 0.175516, 0.128172, 0.083136, 0.050959, 0.031719, 0.024174, 0.024174, 0.026649, 0.037051, 0.050928, 0.068331, 0.090093, 0.114124, 0.114124, 0.137355, 0.158283, 0.175902, 0.189715, 0.193854, 0.163795, 0.163795, 0.116757, 0.077310, 0.050603, 0.035817, 0.031653, 0.031653, 0.036438, 0.047623, 0.061142, 0.079088, 0.100693, 0.123376, 0.123376, 0.144841, 0.163799, 0.179460, 0.191264, 0.184627, 0.143857, 0.143857, 0.097285, 0.062078, 0.039703, 0.029135, 0.028840, 0.028840, 0.037011, 0.049607, 0.065193, 0.085232, 0.108488, 0.131707, 0.131707, 0.153038, 0.171317, 0.185968, 0.194773, 0.173005, 0.124955, 0.124955, 0.082790, 0.053427, 0.036300, 0.030199, 0.033497, 0.033497, 0.044153, 0.057482, 0.074539, 0.095497, 0.118362, 0.140353, 0.140353, 0.160059, 0.176520, 0.189344, 0.190178, 0.150131, 0.095292, 0.095292, 0.052478, 0.024656, 0.010566, 0.008470, 0.016335, 0.016335, 0.031168, 0.048665, 0.070791, 0.096313, 0.122512, 0.146921, 0.146921, 0.168149, 0.185369, 0.198039, 0.191047, 0.150264, 0.107683, 0.107683, 0.076159, 0.055817, 0.045890, 0.045072, 0.051802, 0.051802, 0.062432, 0.075499, 0.092895, 0.113397, 0.133886, 0.152798, 0.152798, 0.169099, 0.182225, 0.189644, 0.163635, 0.106584, 0.054566, 0.054566, 0.018682, 0.001178, 0.000083, 0.002207, 0.015114, 0.015114, 0.032069, 0.053670, 0.079978, 0.108198, 0.135266, 0.159502, 0.159502, 0.179743, 0.195436, 0.197990, 0.161996, 0.109179, 0.065270, 0.065270, 0.035719, 0.019543, 0.015253, 0.020924, 0.033521, 0.033521, 0.049008, 0.069717, 0.094310, 0.119787, 0.143757, 0.164842, 0.164842, 0.182167, 0.194895, 0.183046, 0.134509, 0.083955, 0.046369, 0.046369, 0.023030, 0.012672, 0.013545, 0.023577, 0.038382, 0.038382, 0.056656, 0.079624, 0.105457, 0.130839, 0.153994, 0.173695, 0.173695, 0.189362, 0.197797, 0.173698, 0.126397, 0.084079, 0.054321, 0.054321, 0.036833, 0.030382, 0.033395, 0.043689, 0.056664, 0.056664, 0.073674, 0.094960, 0.118156, 0.140406, 0.160326, 0.176969, 0.176969, 0.189884, 0.188650, 0.146087, 0.087510, 0.040186, 0.009540, 0.009540, 0.000104, 0.000092, 0.005041, 0.019716, 0.037780, 0.037780, 0.061273, 0.088800, 0.117074, 0.143532, 0.166674, 0.185578, 0.185578, 0.199267, 0.187175, 0.134970, 0.078237, 0.035790, 0.009267, 0.009267, 0.000203, 0.000456, 0.009815, 0.025136, 0.044900, 0.044900, 0.069843, 0.097822, 0.125418, 0.150751, 0.172464, 0.189856, 0.189856, 0.199349, 0.174162, 0.121782, 0.073636, 0.039795, 0.019919, 0.019919, 0.012581, 0.015906, 0.027490, 0.042595, 0.062283, 0.062283, 0.086435, 0.112365, 0.137265, 0.159572, 0.178219, 0.192711, 0.192711, 0.193529, 0.157395, 0.106748, 0.065414, 0.037892, 0.023229, 0.023229, 0.019943, 0.026164, 0.038693, 0.054147, 0.074433, 0.074433, 0.098353, 0.122885, 0.145893, 0.166040, 0.182525, 0.194315, 0.194315, 0.180715, 0.130023, 0.077940, 0.039836, 0.016490, 0.006551, 0.006551, 0.008103, 0.018997, 0.034635, 0.054054, 0.078174, 0.078174, 0.105078, 0.131293, 0.155110, 0.175273, 0.191215, 0.198912, 0.198912, 0.173207, 0.126825, 0.085775, 0.057035, 0.040213, 0.034123, 0.034123, 0.037196, 0.047215, 0.059777, 0.076447, 0.097326, 0.097326, 0.119841, 0.141388, 0.160671, 0.176759, 0.189214, 0.186192, 0.186192, 0.144500, 0.093677, 0.054203, 0.028855, 0.016527, 0.015538, 0.015538, 0.023916, 0.038201, 0.055347, 0.076955, 0.101836, 0.101836, 0.126943, 0.150127, 0.170133, 0.186263, 0.197377, 0.183447, 0.183447, 0.138732, 0.094371, 0.061829, 0.041610, 0.032675, 0.033500, 0.033500, 0.042252, 0.054617, 0.070203, 0.090238, 0.112936, 0.112936, 0.135147, 0.155372, 0.172582, 0.186259, 0.191713, 0.163500, 0.163500, 0.115704, 0.073948, 0.045395, 0.029444, 0.024728, 0.029499, 0.029499, 0.041266, 0.055586, 0.074155, 0.096639, 0.120442, 0.120442, 0.143023, 0.163010, 0.179557, 0.192188, 0.189181, 0.149637, 0.149637, 0.100460, 0.062297, 0.037497, 0.025085, 0.023523, 0.030958, 0.030958, 0.043874, 0.059647, 0.079957, 0.103616, 0.127543, 0.127543, 0.149731, 0.168915, 0.184456, 0.194957, 0.178872, 0.130127, 0.130127, 0.081068, 0.045466, 0.023797, 0.014773, 0.016593, 0.027128, 0.027128, 0.041787, 0.060250, 0.083277, 0.108969, 0.133920, 0.133920, 0.156504, 0.175551, 0.190558, 0.195917, 0.162862, 0.106687, 0.106687, 0.058185, 0.025249, 0.007040, 0.001810, 0.007461, 0.021299, 0.021299, 0.038582, 0.060679, 0.087035, 0.114633, 0.140729, 0.140729, 0.163778, 0.182776, 0.197187, 0.193740, 0.152565, 0.105246, 0.105246, 0.069434, 0.046046, 0.034263, 0.032651, 0.039504, 0.051252, 0.051252, 0.065718, 0.084728, 0.106984, 0.129474, 0.150345, 0.150345, 0.168423, 0.183039, 0.192639, 0.174928, 0.124807, 0.076051, 0.076051, 0.041365, 0.020678, 0.012641, 0.015397, 0.026760, 0.042035, 0.042035, 0.061119, 0.084768, 0.110683, 0.135691, 0.158197, 0.158197, 0.177087, 0.191861, 0.196606, 0.164191, 0.114832, 0.074616, 0.074616, 0.047395, 0.032370, 0.028236, 0.033256, 0.044853, 0.058814, 0.058814, 0.077146, 0.099270, 0.122509, 0.144488, 0.163880, 0.163880, 0.179886, 0.191930, 0.186206, 0.143973, 0.093161, 0.054399, 0.054399, 0.029608, 0.017667, 0.016948, 0.025452, 0.039368, 0.056554, 0.056554, 0.078234, 0.103180, 0.128125, 0.151126, 0.170903, 0.170903, 0.186802, 0.196969, 0.180649, 0.143070, 0.109500, 0.085228, 0.085228, 0.070255, 0.063787, 0.064747, 0.071539, 0.080181, 0.091854, 0.091854, 0.107211, 0.124813, 0.142063, 0.157782, 0.171148, 0.171148, 0.181759, 0.182889, 0.149582, 0.103979, 0.068511, 0.045565, 0.045565, 0.034135, 0.032783, 0.039837, 0.052592, 0.067049, 0.085617, 0.085617, 0.107305, 0.129611, 0.150351, 0.168342, 0.182925, 0.182925, 0.193553, 0.185277, 0.144132, 0.101750, 0.070485, 0.050726, 0.050726, 0.041592, 0.041670, 0.049376, 0.060950, 0.074872, 0.093004, 0.093004, 0.114060, 0.135035, 0.154299, 0.170801, 0.184016, 0.184016, 0.191578, 0.167826, 0.118785, 0.076084, 0.046554, 0.029716, 0.029716, 0.024251, 0.028401, 0.040032, 0.054576, 0.072625, 0.094820, 0.094820, 0.118815, 0.141674, 0.161998, 0.178878, 0.191877, 0.191877, 0.193139, 0.154140, 0.096292, 0.048637, 0.017083, 0.001622, 0.001622, 0.000106, 0.005650, 0.020330, 0.038242, 0.061366, 0.088477, 0.088477, 0.116405, 0.142611, 0.165633, 0.184503, 0.198466, 0.198466, 0.190859, 0.146157, 0.095655, 0.057343, 0.032734, 0.020765, 0.020765, 0.019829, 0.027984, 0.041176, 0.057742, 0.079174, 0.103884, 0.103884, 0.128454, 0.151088, 0.170566, 0.186223, 0.195380, 0.195380, 0.172866, 0.122635, 0.075747, 0.042715, 0.023306, 0.016139, 0.016139, 0.019412, 0.030753, 0.045525, 0.064438, 0.087938, 0.113426, 0.113426, 0.137891, 0.159769, 0.178065, 0.192274, 0.193653, 0.193653, 0.157123, 0.106454, 0.065346, 0.037997, 0.023482, 0.020302, 0.020302, 0.026599, 0.039314, 0.054706, 0.074874, 0.098795, 0.123412, 0.123412, 0.146460, 0.166567, 0.182994, 0.194936, 0.184928, 0.184928, 0.138646, 0.087243, 0.048607, 0.024282, 0.013063, 0.013189, 0.013189, 0.022626, 0.036937, 0.054945, 0.077749, 0.103665, 0.129205, 0.129205, 0.152605, 0.172579, 0.188544, 0.197329, 0.173472, 0.173472, 0.123034, 0.075836, 0.042599, 0.023026, 0.015753, 0.018966, 0.018966, 0.030256, 0.044958, 0.064112, 0.087792, 0.113317, 0.137804, 0.137804, 0.159730, 0.178027, 0.192258, 0.192809, 0.155820, 0.155820, 0.106277, 0.066674, 0.040408, 0.026635, 0.023865, 0.030275, 0.030275, 0.042697, 0.057806, 0.077548, 0.100872, 0.124839, 0.147260, 0.147260, 0.166838, 0.182803, 0.194248, 0.181025, 0.127852, 0.127852, 0.070522, 0.028398, 0.003791, 0.000079, 0.000257, 0.009319, 0.009319, 0.024860, 0.044683, 0.069777, 0.098127, 0.126018, 0.151582, 0.151582, 0.173441, 0.190875, 0.199916, 0.173397, 0.124297, 0.124297, 0.080403, 0.049644, 0.031599, 0.025038, 0.028270, 0.038936, 0.038936, 0.052459, 0.070317, 0.092587, 0.116538, 0.139499, 0.160051, 0.160051, 0.177222, 0.190519, 0.189002, 0.148973, 0.097030, 0.097030, 0.055783, 0.028908, 0.015297, 0.013356, 0.021076, 0.034923, 0.034923, 0.051780, 0.073538, 0.098920, 0.124739, 0.148652, 0.169337, 0.169337, 0.186059, 0.197678, 0.183839, 0.136864, 0.088202, 0.088202, 0.052109, 0.029616, 0.019538, 0.020219, 0.029653, 0.043269, 0.043269, 0.060583, 0.082579, 0.107476, 0.131881, 0.154155, 0.173129, 0.173129, 0.188231, 0.195214, 0.169257, 0.123925, 0.085113, 0.085113, 0.058341, 0.043024, 0.037970, 0.041667, 0.051843, 0.064132, 0.064132, 0.080503, 0.100829, 0.122593, 0.143350, 0.161828, 0.177204, 0.177204, 0.189034, 0.185721, 0.142821, 0.088489, 0.047008, 0.047008, 0.020481, 0.007707, 0.006842, 0.015854, 0.031017, 0.049304, 0.049304, 0.072332, 0.098729, 0.125266, 0.149749, 0.170837, 0.187809, 0.187809, 0.199403, 0.184830, 0.137440, 0.089192, 0.053720, 0.053720, 0.031633, 0.021789, 0.022513, 0.031826, 0.045114, 0.062173, 0.062173, 0.084048, 0.108576, 0.132594, 0.154502, 0.173158, 0.188000, 0.188000, 0.194182, 0.165684, 0.114435, 0.070027, 0.039702, 0.039702, 0.022662, 0.017460, 0.022251, 0.034471, 0.049530, 0.069168, 0.069168, 0.092928, 0.118031, 0.141841, 0.162929, 0.180369, 0.193658, 0.193658, 0.190618, 0.152305, 0.103237, 0.064894, 0.039782, 0.039782, 0.026965, 0.024950, 0.031918, 0.044310, 0.059683, 0.079830, 0.079830, 0.103284, 0.127007, 0.149060, 0.168200, 0.183732, 0.194091, 0.194091, 0.175987, 0.124809, 0.075541, 0.040435, 0.019473, 0.019473, 0.011283, 0.013991, 0.025379, 0.040692, 0.059930, 0.083691, 0.083691, 0.109737, 0.134906, 0.157618, 0.176731, 0.191728, 0.196713, 0.196713, 0.163299, 0.106971, 0.059492, 0.027436, 0.009750, 0.009750, 0.004806, 0.010556, 0.024180, 0.041054, 0.062720, 0.088619, 0.088619, 0.115708, 0.141286, 0.163872, 0.182488, 0.196565, 0.192692, 0.192692, 0.153482, 0.108922, 0.074975, 0.052764, 0.041519, 0.041519, 0.039904, 0.046305, 0.057142, 0.070612, 0.088321, 0.109389, 0.109389, 0.130720, 0.150540, 0.167765, 0.181747, 0.190615, 0.169682, 0.169682, 0.119736, 0.073854, 0.041869, 0.023327, 0.016866, 0.016866, 0.020667, 0.032539, 0.047822, 0.066785, 0.089845, 0.114944, 0.114944, 0.139005, 0.160492, 0.178419, 0.192322, 0.195411, 0.161893, 0.161893, 0.114434, 0.076014, 0.050229, 0.036206, 0.032649, 0.032641, 0.037890, 0.049294, 0.062893, 0.080783, 0.102293, 0.124904, 0.124904, 0.146212, 0.164938, 0.180335, 0.191834, 0.185339, 0.147309, 0.147309, 0.105572, 0.074317, 0.054346, 0.044811, 0.044399, 0.044392, 0.051518, 0.062475, 0.075820, 0.093273, 0.113938, 0.134655, 0.134655, 0.153723, 0.170087, 0.183235, 0.191192, 0.172277, 0.132368, 0.132368, 0.096251, 0.070696, 0.055605, 0.049975, 0.052456, 0.052454, 0.061228, 0.072070, 0.086017, 0.103849, 0.123605, 0.142713, 0.142713, 0.159901, 0.174336, 0.185630, 0.186428, 0.152724, 0.105649, 0.105649, 0.067433, 0.042308, 0.029318, 0.027017, 0.033627, 0.033618, 0.046405, 0.061293, 0.080421, 0.103126, 0.126552, 0.148393, 0.148393, 0.167404, 0.182856, 0.194165, 0.185289, 0.139851, 0.089215, 0.089215, 0.051076, 0.026980, 0.015783, 0.015774, 0.024945, 0.024936, 0.039020, 0.056529, 0.078734, 0.104338, 0.129681, 0.152884, 0.152884, 0.172707, 0.188504, 0.197784, 0.175673, 0.125720, 0.079366, 0.079366, 0.046575, 0.027089, 0.019647, 0.022465, 0.033305, 0.033310, 0.047546, 0.065791, 0.088628, 0.113644, 0.137702, 0.159285, 0.159285, 0.177362, 0.191420, 0.192810, 0.154809, 0.100392, 0.055901, 0.055901, 0.026429, 0.010895, 0.007631, 0.014608, 0.028650, 0.028652, 0.045711, 0.067745, 0.093696, 0.120415, 0.145380, 0.167169, 0.167169, 0.184946, 0.197880, 0.188046, 0.140029, 0.086933, 0.046791, 0.046791, 0.021364, 0.009409, 0.009159, 0.018523, 0.033082, 0.031964, 0.051495, 0.074890, 0.101509, 0.127801, 0.151903, 0.172527, 0.172527, 0.189022, 0.198289, 0.173470, 0.119026, 0.068165, 0.032366, 0.032366, 0.011369, 0.003634, 0.007149, 0.019424, 0.035565, 0.036848, 0.056379, 0.081941, 0.109399, 0.135758, 0.159370, 0.179098, 0.179098, 0.194429, 0.196358, 0.161522, 0.113568, 0.074974, 0.049053, 0.049053, 0.035015, 0.031494, 0.036849, 0.048060, 0.061744, 0.060566, 0.080098, 0.102189, 0.125051, 0.146543, 0.165385, 0.180842, 0.180842, 0.192053, 0.181141, 0.137428, 0.093226, 0.060720, 0.040597, 0.040597, 0.031787, 0.032747, 0.041706, 0.054374, 0.069992, 0.066529, 0.089967, 0.112771, 0.135115, 0.155501, 0.172829, 0.186589, 0.186589, 0.193310, 0.165540, 0.110198, 0.058931, 0.023489, 0.003775, 0.003775, 0.000096, 0.003120, 0.016469, 0.033569, 0.055436, 0.058453, 0.081890, 0.109989, 0.136789, 0.160711, 0.180610, 0.195972, 0.195972, 0.196152, 0.154156, 0.095715, 0.048621, 0.017485, 0.001976, 0.001976, 0.000123, 0.006272, 0.020788, 0.038839, 0.062252, 0.062375, 0.089719, 0.117823, 0.144078, 0.167023, 0.185754, 0.199151, 0.199151, 0.187249, 0.139951, 0.089286, 0.051492, 0.027671, 0.016660, 0.016660, 0.016748, 0.025900, 0.039564, 0.057142, 0.079587, 0.105116, 0.105116, 0.130203, 0.153121, 0.172701, 0.188307, 0.195540, 0.195540, 0.166510, 0.114380, 0.068250, 0.036495, 0.018501, 0.012785, 0.012785, 0.017437, 0.029899, 0.045528, 0.065621, 0.089959, 0.115770, 0.115770, 0.140328, 0.162127, 0.180217, 0.194094, 0.192762, 0.192762, 0.152317, 0.099294, 0.057799, 0.030575, 0.016613, 0.014290, 0.014290, 0.021648, 0.035092, 0.051676, 0.073249, 0.098428, 0.124032, 0.124032, 0.147829, 0.168455, 0.185209, 0.196858, 0.182133, 0.182133, 0.131433, 0.078417, 0.039562, 0.015626, 0.005255, 0.006508, 0.006508, 0.017244, 0.032712, 0.052179, 0.076536, 0.103853, 0.130487, 0.130487, 0.154691, 0.175186, 0.191419, 0.198835, 0.171693, 0.171693, 0.121488, 0.078313, 0.048469, 0.031271, 0.025427, 0.029216, 0.029216, 0.040184, 0.053819, 0.071972, 0.094330, 0.118160, 0.140924, 0.140924, 0.161221, 0.178086, 0.191088, 0.187732, 0.144585, 0.144585, 0.089103, 0.045384, 0.017177, 0.003336, 0.001704, 0.010454, 0.010454, 0.025699, 0.044364, 0.068033, 0.095257, 0.122662, 0.148032, 0.148032, 0.169979, 0.187686, 0.199774, 0.184912, 0.139777, 0.139777, 0.093559, 0.059296, 0.037869, 0.028165, 0.028626, 0.037325, 0.037325, 0.049744, 0.066050, 0.086896, 0.110282, 0.133241, 0.154220, 0.154220, 0.172128, 0.186377, 0.191499, 0.160639, 0.110792, 0.110792, 0.069331, 0.041434, 0.026266, 0.022375, 0.027962, 0.040431, 0.040431, 0.055330, 0.074655, 0.097755, 0.121994, 0.144814, 0.164893, 0.164893, 0.181397, 0.193811, 0.188738, 0.146809, 0.097556, 0.097556, 0.060267, 0.036268, 0.024597, 0.023674, 0.031637, 0.044732, 0.044732, 0.060706, 0.081181, 0.105091, 0.129132, 0.151316, 0.170428, 0.170428, 0.185823, 0.195703, 0.176662, 0.131208, 0.091181, 0.091181, 0.062736, 0.045759, 0.039208, 0.041562, 0.050990, 0.063039, 0.063039, 0.078153, 0.097504, 0.119322, 0.140396, 0.159344, 0.175256, 0.175256, 0.187705, 0.190293, 0.155470, 0.106125, 0.067384, 0.067384, 0.041834, 0.028490, 0.025954, 0.032408, 0.045187, 0.059991, 0.059991, 0.079021, 0.101619, 0.125134, 0.147158, 0.166396, 0.182117, 0.182117, 0.193781, 0.187651, 0.148489, 0.106409, 0.075251, 0.075251, 0.055257, 0.045611, 0.045078, 0.052033, 0.062880, 0.076136, 0.076136, 0.093495, 0.113946, 0.134486, 0.153420, 0.169701, 0.182790, 0.182790, 0.190719, 0.170088, 0.124687, 0.084222, 0.056120, 0.056120, 0.039833, 0.034169, 0.037605, 0.048085, 0.061174, 0.077564, 0.077564, 0.097865, 0.120156, 0.141564, 0.160712, 0.176699, 0.189118, 0.189118, 0.191526, 0.160329, 0.114286, 0.077328, 0.052651, 0.052651, 0.039381, 0.036216, 0.041585, 0.052773, 0.065974, 0.083459, 0.083459, 0.104386, 0.126224, 0.146811, 0.164921, 0.179806, 0.190878, 0.190878, 0.182963, 0.140251, 0.094301, 0.060775, 0.039793, 0.039793, 0.030341, 0.030844, 0.039572, 0.052539, 0.068164, 0.088053, 0.088053, 0.110901, 0.133523, 0.154228, 0.171914, 0.186032, 0.194307, 0.194307, 0.172669, 0.124552, 0.079276, 0.047242, 0.028351, 0.028351, 0.021298, 0.024320, 0.035264, 0.049405, 0.067441, 0.090036, 0.090036, 0.114703, 0.138391, 0.159641, 0.177420, 0.191248, 0.193155, 0.193155, 0.156044, 0.100519, 0.054810, 0.024421, 0.008288, 0.008288, 0.004669, 0.011499, 0.025685, 0.042978, 0.065422, 0.091750, 0.091750, 0.118889, 0.144287, 0.166510, 0.184677, 0.198028, 0.189741, 0.189741, 0.143826, 0.090994, 0.050917, 0.025285, 0.012945, 0.012945, 0.012163, 0.020903, 0.034896, 0.052539, 0.075190, 0.101185, 0.101185, 0.126982, 0.150724, 0.171131, 0.187525, 0.197160, 0.175630, 0.175630, 0.125997, 0.079782, 0.047199, 0.027858, 0.020471, 0.020471, 0.023302, 0.034016, 0.048023, 0.066167, 0.088944, 0.113676, 0.113676, 0.137497, 0.158881, 0.176825, 0.190835, 0.192084, 0.154883, 0.154883, 0.101422, 0.057736, 0.028804, 0.013566, 0.010388, 0.010388, 0.017278, 0.030973, 0.047699, 0.069417, 0.094926, 0.121128, 0.121128, 0.145621, 0.166985, 0.184406, 0.197033, 0.186801, 0.140172, 0.140172, 0.088285, 0.049011, 0.024159, 0.012517, 0.012341, 0.012341, 0.021574, 0.035690, 0.053601, 0.076416, 0.102596, 0.128435, 0.128435, 0.152137, 0.172400, 0.188619, 0.197476, 0.173286, 0.123220, 0.123220, 0.077651, 0.045677, 0.026942, 0.020105, 0.023408, 0.023408, 0.034471, 0.048666, 0.067125, 0.090005, 0.114681, 0.138386, 0.138386, 0.159632, 0.177394, 0.191222, 0.191481, 0.154461, 0.104499, 0.104499, 0.065299, 0.039528, 0.026208, 0.023852, 0.030610, 0.030610, 0.043272, 0.058425, 0.078238, 0.101671, 0.125658, 0.148018, 0.148018, 0.167481, 0.183308, 0.194536, 0.181840, 0.135827, 0.089827, 0.089827, 0.056225, 0.035480, 0.026489, 0.027648, 0.037047, 0.037047, 0.050289, 0.066632, 0.087449, 0.111156, 0.134360, 0.155477, 0.155477, 0.173420, 0.187633, 0.194316, 0.167445, 0.118413, 0.075130, 0.075130, 0.045251, 0.028209, 0.022681, 0.026909, 0.038490, 0.038490, 0.052830, 0.071305, 0.094022, 0.118244, 0.141313, 0.161834, 0.161834, 0.178879, 0.191969, 0.190264, 0.150642, 0.098262, 0.056416, 0.056416, 0.029012, 0.014989, 0.012726, 0.020220, 0.033940, 0.033940, 0.050831, 0.072516, 0.097893, 0.123706, 0.147693, 0.168512, 0.168512, 0.185395, 0.197186, 0.183500, 0.133598, 0.080636, 0.041655, 0.041655, 0.017495, 0.006810, 0.007758, 0.018158, 0.033304, 0.033304, 0.052504, 0.076520, 0.103447, 0.129773, 0.153767, 0.174186, 0.174186, 0.190400, 0.197896, 0.170852, 0.123128, 0.080755, 0.051313, 0.051313, 0.034262, 0.028332, 0.031903, 0.042553, 0.055850, 0.055850, 0.073490, 0.095300, 0.118688, 0.141040, 0.160992, 0.177618, 0.177618, 0.190457, 0.187733, 0.148186, 0.100652, 0.064472, 0.041123, 0.041123, 0.029645, 0.028562, 0.036094, 0.048826, 0.064129, 0.064129, 0.083758, 0.106606, 0.129724, 0.151090, 0.169530, 0.184412, 0.184412, 0.194437, 0.178573, 0.132242, 0.086129, 0.052621, 0.032190, 0.032190, 0.023646, 0.025312, 0.035226, 0.048747, 0.065910, 0.065910, 0.087584, 0.111830, 0.135417, 0.156778, 0.174829, 0.189077, 0.189077, 0.194394, 0.164304, 0.113823, 0.070268, 0.040579, 0.024008, 0.024008, 0.019122, 0.024068, 0.036282, 0.051208, 0.070715, 0.070715, 0.094204, 0.119026, 0.142551, 0.163354, 0.180543, 0.193605, 0.193605, 0.188883, 0.144877, 0.092215, 0.051736, 0.025719, 0.013036, 0.013036, 0.011976, 0.020493, 0.034809, 0.052363, 0.074538, 0.074538, 0.100174, 0.125906, 0.149690, 0.170215, 0.186775, 0.197735, 0.197735, 0.180352, 0.130978, 0.083300, 0.048975, 0.028110, 0.019471, 0.019471, 0.021331, 0.031583, 0.045580, 0.063468, 0.085833, 0.085833, 0.110815, 0.135049, 0.156978, 0.175478, 0.190052, 0.194454, 0.194454, 0.159440, 0.101421, 0.052731, 0.020094, 0.002889, 0.000110, 0.000110, 0.005170, 0.019588, 0.037143, 0.059866, 0.086753, 0.086753, 0.114833, 0.141299, 0.164634, 0.183822, 0.198273, 0.193257, 0.193257, 0.149834, 0.100376, 0.063386, 0.039443, 0.027595, 0.026349, 0.026349, 0.033867, 0.046353, 0.061874, 0.081851, 0.105249, 0.105249, 0.128776, 0.150544, 0.169362, 0.184565, 0.194342, 0.176587, 0.176587, 0.132127, 0.091786, 0.063319, 0.046297, 0.039670, 0.041957, 0.041957, 0.051276, 0.063259, 0.078507, 0.097809, 0.119326, 0.119326, 0.140154, 0.158911, 0.174707, 0.187094, 0.189620, 0.155829, 0.155829, 0.106377, 0.065732, 0.038793, 0.024553, 0.021515, 0.027846, 0.027846, 0.040746, 0.056043, 0.075773, 0.099100, 0.123343, 0.123343, 0.146098, 0.166008, 0.182313, 0.194416, 0.186982, 0.141224, 0.141224, 0.091485, 0.054548, 0.031216, 0.020364, 0.020357, 0.029259, 0.029259, 0.043103, 0.060167, 0.081434, 0.105797, 0.130044, 0.130044, 0.152323, 0.171425, 0.186748, 0.195918, 0.174549, 0.126922, 0.126922, 0.083460, 0.052754, 0.034573, 0.027722, 0.030544, 0.040920, 0.040920, 0.054396, 0.071413, 0.092868, 0.116457, 0.139163, 0.139163, 0.159533, 0.176579, 0.189880, 0.191753, 0.155614, 0.102164, 0.102164, 0.058397, 0.029340, 0.013980, 0.010661, 0.017414, 0.031158, 0.031158, 0.047679, 0.069134, 0.094451, 0.120595, 0.145078, 0.145078, 0.166494, 0.183975, 0.196844, 0.189189, 0.146801, 0.100181, 0.100181, 0.064893, 0.042228, 0.031257, 0.030502, 0.038189, 0.050312, 0.050312, 0.065392, 0.085068, 0.108058, 0.130974, 0.152083, 0.152083, 0.170235, 0.184822, 0.193192, 0.170492, 0.120703, 0.075129, 0.075129, 0.043195, 0.024607, 0.018042, 0.021691, 0.033216, 0.047945, 0.047945, 0.066665, 0.089825, 0.114832, 0.138796, 0.160231, 0.160231, 0.178124, 0.192020, 0.193730, 0.159659, 0.111697, 0.072450, 0.072450, 0.046173, 0.032014, 0.028637, 0.034294, 0.045993, 0.059954, 0.059954, 0.078640, 0.101162, 0.124575, 0.146548, 0.165814, 0.165814, 0.181605, 0.193115, 0.181214, 0.129634, 0.072348, 0.029618, 0.029618, 0.004272, 0.000080, 0.000185, 0.008652, 0.023911, 0.043278, 0.043278, 0.068020, 0.096122, 0.123980, 0.149645, 0.171695, 0.171695, 0.189402, 0.199521, 0.176643, 0.129668, 0.086597, 0.056076, 0.056076, 0.037862, 0.030771, 0.033224, 0.042994, 0.055496, 0.072161, 0.072161, 0.093316, 0.116341, 0.138572, 0.158593, 0.175401, 0.175401, 0.188540, 0.188401, 0.148320, 0.091315, 0.044878, 0.014525, 0.014525, 0.000897, 0.000115, 0.006434, 0.021405, 0.039644, 0.063129, 0.063129, 0.090581, 0.118639, 0.144824, 0.167650, 0.186249, 0.186249, 0.199644, 0.189542, 0.146004, 0.099770, 0.065043, 0.042851, 0.042851, 0.032215, 0.031660, 0.039443, 0.051202, 0.066276, 0.086024, 0.086024, 0.108950, 0.131650, 0.152549, 0.170497, 0.184917, 0.184917, 0.192181, 0.166211, 0.114492, 0.067145, 0.034435, 0.015786, 0.015786, 0.009691, 0.014197, 0.026826, 0.042732, 0.063162, 0.087959, 0.087959, 0.114350, 0.139461, 0.161795, 0.180326, 0.194570, 0.194570, 0.193219, 0.151049, 0.095700, 0.051737, 0.022932, 0.008175, 0.008175, 0.005693, 0.013425, 0.027842, 0.045502, 0.068200, 0.094597, 0.094597, 0.121439, 0.146433, 0.168170, 0.185843, 0.198385, 0.198385, 0.186297, 0.140087, 0.091333, 0.055073, 0.032263, 0.021790, 0.021790, 0.022015, 0.030954, 0.044175, 0.061110, 0.082769, 0.107494, 0.107494, 0.131760, 0.153921, 0.172808, 0.187857, 0.194562, 0.194562, 0.163124, 0.103933, 0.049771, 0.012760, 0.000114, 0.000076, 0.000076, 0.001159, 0.012458, 0.028576, 0.050181, 0.076701, 0.105144, 0.105144, 0.132558, 0.157246, 0.178016, 0.194241, 0.194538, 0.194538, 0.158749, 0.115070, 0.081059, 0.058448, 0.046507, 0.044023, 0.044023, 0.049456, 0.059577, 0.071881, 0.088526, 0.108824, 0.129729, 0.129729, 0.149284, 0.166358, 0.180321, 0.189909, 0.173342, 0.173342, 0.122491, 0.071757, 0.035318, 0.013612, 0.005167, 0.008003, 0.008003, 0.019937, 0.036092, 0.056095, 0.080650, 0.107738, 0.133932, 0.133932, 0.157546, 0.177389, 0.192950, 0.199427, 0.170858, 0.170858, 0.119406, 0.074927, 0.044157, 0.026494, 0.020542, 0.024543, 0.024543, 0.035935, 0.050139, 0.069158, 0.092364, 0.117107, 0.140684, 0.140684, 0.161656, 0.179072, 0.192448, 0.189515, 0.149468, 0.149468, 0.100318, 0.062528, 0.037974, 0.025744, 0.024298, 0.031783, 0.031783, 0.044567, 0.060174, 0.080310, 0.103882, 0.127685, 0.149762, 0.149762, 0.168880, 0.184330, 0.194690, 0.178307, 0.134671, 0.134671, 0.093719, 0.064274, 0.046383, 0.039058, 0.040810, 0.049829, 0.049829, 0.061628, 0.076655, 0.095867, 0.117569, 0.138671, 0.157769, 0.157769, 0.173914, 0.186619, 0.189991, 0.155216, 0.099866, 0.099861, 0.053459, 0.022550, 0.006106, 0.002356, 0.009214, 0.023814, 0.023814, 0.041447, 0.063894, 0.090316, 0.117714, 0.143446, 0.166008, 0.166008, 0.184498, 0.198317, 0.193556, 0.151094, 0.103345, 0.103335, 0.067583, 0.044359, 0.032771, 0.031426, 0.038555, 0.050497, 0.050497, 0.065174, 0.084361, 0.106994, 0.129838, 0.150980, 0.169250, 0.169250, 0.184002, 0.193485, 0.175355, 0.132555, 0.094049, 0.094049, 0.066690, 0.050360, 0.044024, 0.046298, 0.055359, 0.066893, 0.066893, 0.081340, 0.099908, 0.120681, 0.140800, 0.158941, 0.174216, 0.174216, 0.186214, 0.188083, 0.151482, 0.099299, 0.057516, 0.057514, 0.030048, 0.015914, 0.013467, 0.020782, 0.034963, 0.051659, 0.051659, 0.072773, 0.097387, 0.122805, 0.146580, 0.167320, 0.184233, 0.184233, 0.196762, 0.190664, 0.153266, 0.113972, 0.084164, 0.084154, 0.064730, 0.054989, 0.053772, 0.059673, 0.069207, 0.080998, 0.080998, 0.096768, 0.115640, 0.134756, 0.152505, 0.167899, 0.180376, 0.180376, 0.187911, 0.165034, 0.117104, 0.074906, 0.045770, 0.045774, 0.029310, 0.024180, 0.028621, 0.040535, 0.055274, 0.073312, 0.073312, 0.095343, 0.119174, 0.141933, 0.162169, 0.178966, 0.191911, 0.191911, 0.194443, 0.165785, 0.126332, 0.093718, 0.071506, 0.071517, 0.059081, 0.055434, 0.059189, 0.067973, 0.078165, 0.092479, 0.092479, 0.110382, 0.129395, 0.147427, 0.163390, 0.176597, 0.186484, 0.186484, 0.177644, 0.133478, 0.084707, 0.048337, 0.025855, 0.025856, 0.016044, 0.017138, 0.027132, 0.041998, 0.059780, 0.082051, 0.082051, 0.107268, 0.132081, 0.154689, 0.173900, 0.189141, 0.198092, 0.198092, 0.177154, 0.130546, 0.087138, 0.056148, 0.037551, 0.037992, 0.030180, 0.032441, 0.042201, 0.054917, 0.071485, 0.092628, 0.092628, 0.115987, 0.138518, 0.158805, 0.175843, 0.189162, 0.190704, 0.190704, 0.156579, 0.108997, 0.070358, 0.044704, 0.031150, 0.028288, 0.028288, 0.034361, 0.046477, 0.060723, 0.079544, 0.102119, 0.102119, 0.125528, 0.147397, 0.166516, 0.182130, 0.193515, 0.182025, 0.182025, 0.128397, 0.066429, 0.019833, 0.000278, 0.000070, 0.000081, 0.000081, 0.003921, 0.017367, 0.035571, 0.059717, 0.087860, 0.087860, 0.116279, 0.142883, 0.166196, 0.185265, 0.197072, 0.175702, 0.175702, 0.126323, 0.080560, 0.048194, 0.028969, 0.021616, 0.020492, 0.024398, 0.035031, 0.048831, 0.066800, 0.089362, 0.113929, 0.113929, 0.137605, 0.158866, 0.176709, 0.190651, 0.190875, 0.149769, 0.149769, 0.090706, 0.042460, 0.010925, 0.000143, 0.000089, 0.000624, 0.004530, 0.019024, 0.036857, 0.060177, 0.087659, 0.115969, 0.115969, 0.142531, 0.165817, 0.184889, 0.198839, 0.189451, 0.144293, 0.144293, 0.095165, 0.058142, 0.034529, 0.023257, 0.022742, 0.023275, 0.031087, 0.043940, 0.060178, 0.081353, 0.105696, 0.129793, 0.129793, 0.151966, 0.170983, 0.186248, 0.194394, 0.169555, 0.117668, 0.117668, 0.069336, 0.035611, 0.016076, 0.009255, 0.013209, 0.013702, 0.025420, 0.041053, 0.061274, 0.086118, 0.112821, 0.138322, 0.138322, 0.161050, 0.179940, 0.194527, 0.194835, 0.155206, 0.100098, 0.100098, 0.055550, 0.026004, 0.010451, 0.007202, 0.014207, 0.028003, 0.028003, 0.045039, 0.067322, 0.093414, 0.120118, 0.145083, 0.145083, 0.166887, 0.184680, 0.197414, 0.184816, 0.135516, 0.083053, 0.083053, 0.044006, 0.019613, 0.008640, 0.009231, 0.019273, 0.034057, 0.034057, 0.052792, 0.076463, 0.103234, 0.129468, 0.153417, 0.153417, 0.173813, 0.190023, 0.197741, 0.167612, 0.108668, 0.056645, 0.056645, 0.020904, 0.002117, 0.000087, 0.002541, 0.015511, 0.032250, 0.032250, 0.054161, 0.080662, 0.108889, 0.135882, 0.160014, 0.160014, 0.180132, 0.195690, 0.195734, 0.158902, 0.110129, 0.070723, 0.070723, 0.044392, 0.030285, 0.027032, 0.032866, 0.044427, 0.058860, 0.058860, 0.078116, 0.101100, 0.124728, 0.146845, 0.166179, 0.166179, 0.181983, 0.193042, 0.176794, 0.121980, 0.064672, 0.022979, 0.022979, 0.001469, 0.000077, 0.000202, 0.009025, 0.024401, 0.044305, 0.044305, 0.069477, 0.097865, 0.125789, 0.151371, 0.173260, 0.173260, 0.190770, 0.199194, 0.171893, 0.124983, 0.085215, 0.057675, 0.057675, 0.041782, 0.036355, 0.039871, 0.049957, 0.062166, 0.078585, 0.078585, 0.099286, 0.121514, 0.142783, 0.161748, 0.177539, 0.177539, 0.189683, 0.185571, 0.139900, 0.080920, 0.034834, 0.006072, 0.006072, 0.000079, 0.000093, 0.005650, 0.020460, 0.038721, 0.062597, 0.062597, 0.090481, 0.118720, 0.145048, 0.167965, 0.186604, 0.186604, 0.199471, 0.183489, 0.131798, 0.078825, 0.040170, 0.016342, 0.016342, 0.006007, 0.007224, 0.017864, 0.032954, 0.052215, 0.076618, 0.076618, 0.103604, 0.129919, 0.153914, 0.174314, 0.190505, 0.190505, 0.197329, 0.170365, 0.125568, 0.087217, 0.060700, 0.045439, 0.045439, 0.040301, 0.043754, 0.053486, 0.065333, 0.081460, 0.101507, 0.101507, 0.123035, 0.143545, 0.161826, 0.177028, 0.188684, 0.188684, 0.182943, 0.136269, 0.078935, 0.034811, 0.007180, 0.000088, 0.000088, 0.000132, 0.007663, 0.023079, 0.042139, 0.066464, 0.094344, 0.094344, 0.122356, 0.148230, 0.170576, 0.188595, 0.200607, 0.200607, 0.183941, 0.137750, 0.094776, 0.063858, 0.044810, 0.036619, 0.036619, 0.037813, 0.046495, 0.058253, 0.073478, 0.093082, 0.115241, 0.115241, 0.136868, 0.156500, 0.173162, 0.186359, 0.190296, 0.190296, 0.161308, 0.116599, 0.079901, 0.055221, 0.041798, 0.038398, 0.038398, 0.043412, 0.054416, 0.067215, 0.084158, 0.104786, 0.126525, 0.126525, 0.146994, 0.164969, 0.179754, 0.190837, 0.184086, 0.184086, 0.141591, 0.095424, 0.061010, 0.039293, 0.029271, 0.029401, 0.029401, 0.037861, 0.050834, 0.066562, 0.086545, 0.109583, 0.132556, 0.132556, 0.153631, 0.171642, 0.186057, 0.194905, 0.174602, 0.174602, 0.129986, 0.093160, 0.067562, 0.052605, 0.047284, 0.050166, 0.050166, 0.059454, 0.070874, 0.085106, 0.103251, 0.123557, 0.143137, 0.143137, 0.160683, 0.175348, 0.186783, 0.188065, 0.151152, 0.151152, 0.098148, 0.055081, 0.026797, 0.012200, 0.009613, 0.017037, 0.017037, 0.031442, 0.048503, 0.070366, 0.095798, 0.122001, 0.146443, 0.146443, 0.167743, 0.185068, 0.197855, 0.191573, 0.154494, 0.154494, 0.116238, 0.087875, 0.069377, 0.060105, 0.058973, 0.064605, 0.064605, 0.073431, 0.084255, 0.099204, 0.117551, 0.136114, 0.153308, 0.153308, 0.168183, 0.180196, 0.187208, 0.164117, 0.112247, 0.112247, 0.063677, 0.029934, 0.010744, 0.004497, 0.009185, 0.022404, 0.022404, 0.039176, 0.059999, 0.085332, 0.112570, 0.138558, 0.161669, 0.161669, 0.180857, 0.195609, 0.198328, 0.162654, 0.108523, 0.108523, 0.063212, 0.032596, 0.015785, 0.011186, 0.016856, 0.029742, 0.029742, 0.045618, 0.066738, 0.091888, 0.118099, 0.142790, 0.164538, 0.164538, 0.182426, 0.195694, 0.187521, 0.141712, 0.091480, 0.091480, 0.053867, 0.030015, 0.018844, 0.018657, 0.027520, 0.041042, 0.041042, 0.057904, 0.079576, 0.104642, 0.129493, 0.152297, 0.171827, 0.171827, 0.187474, 0.196339, 0.170078, 0.110590, 0.055360, 0.055360, 0.016820, 0.000399, 0.000077, 0.000810, 0.011551, 0.027447, 0.027447, 0.048416, 0.074576, 0.103120, 0.130774, 0.155790, 0.176901, 0.176901, 0.193521, 0.196864, 0.161309, 0.110150, 0.068389, 0.068389, 0.040333, 0.025077, 0.021213, 0.026876, 0.039014, 0.053832, 0.053832, 0.073634, 0.097257, 0.121771, 0.144824, 0.165085, 0.181721, 0.181721, 0.193937, 0.183585, 0.135426, 0.082848, 0.043486, 0.043486, 0.018880, 0.007742, 0.008264, 0.018315, 0.033465, 0.052169, 0.052169, 0.075836, 0.102712, 0.129148, 0.153284, 0.173839, 0.190192, 0.190192, 0.199191, 0.173752, 0.119669, 0.069673, 0.034564, 0.034564, 0.013959, 0.006373, 0.009894, 0.021955, 0.037705, 0.058107, 0.058107, 0.083253, 0.110363, 0.136365, 0.159642, 0.179093, 0.194195, 0.194195, 0.195443, 0.158100, 0.105066, 0.061847, 0.033021, 0.033021, 0.017604, 0.014007, 0.020362, 0.033313, 0.049223, 0.070322, 0.070322, 0.095274, 0.120917, 0.144969, 0.166040, 0.183284, 0.195709, 0.195709, 0.183077, 0.131501, 0.076194, 0.035140, 0.009748, 0.009748, 0.000371, 0.001011, 0.011378, 0.027173, 0.047020, 0.071917, 0.071917, 0.100048, 0.127641, 0.152837, 0.174306, 0.191388, 0.200435, 0.200435, 0.175240, 0.124517, 0.078899, 0.046922, 0.028106, 0.028106, 0.021128, 0.024232, 0.035074, 0.048924, 0.067209, 0.090098, 0.090098, 0.114878, 0.138637, 0.159916, 0.177696, 0.191490, 0.190981, 0.190981, 0.152684, 0.100845, 0.059292, 0.031952, 0.017811, 0.017811, 0.015281, 0.022384, 0.035736, 0.052038, 0.073294, 0.098287, 0.098287, 0.123839, 0.147596, 0.168242, 0.185007, 0.196798, 0.182599, 0.182599, 0.131068, 0.077393, 0.037992, 0.013717, 0.003213, 0.003213, 0.004413, 0.015258, 0.030854, 0.050534, 0.075162, 0.102723, 0.102723, 0.129652, 0.154150, 0.174962, 0.191468, 0.199395, 0.173367, 0.173367, 0.124784, 0.080183, 0.048883, 0.030480, 0.023707, 0.023707, 0.026845, 0.037423, 0.050873, 0.069014, 0.091550, 0.115721, 0.115721, 0.138917, 0.159684, 0.177075, 0.190586, 0.188292, 0.147193, 0.147193, 0.094049, 0.052073, 0.024856, 0.011253, 0.009553, 0.009553, 0.017711, 0.032013, 0.049397, 0.071815, 0.097885, 0.124255, 0.124255, 0.148669, 0.169758, 0.186807, 0.198480, 0.182716, 0.134020, 0.134020, 0.085084, 0.049247, 0.027156, 0.017571, 0.018766, 0.018766, 0.028692, 0.042585, 0.060385, 0.082744, 0.108055, 0.132767, 0.132767, 0.155244, 0.174303, 0.189405, 0.195633, 0.167247, 0.117724, 0.117724, 0.074114, 0.044049, 0.026959, 0.021464, 0.025781, 0.025781, 0.037328, 0.051523, 0.070428, 0.093575, 0.118285, 0.141760, 0.141760, 0.162584, 0.179807, 0.192961, 0.188656, 0.143237, 0.087480, 0.087480, 0.044539, 0.016977, 0.003661, 0.002497, 0.011579, 0.011579, 0.026943, 0.045601, 0.069254, 0.096478, 0.123834, 0.149098, 0.149098, 0.170874, 0.188408, 0.200211, 0.183754, 0.134248, 0.083932, 0.083932, 0.047101, 0.024301, 0.014329, 0.015410, 0.025397, 0.025397, 0.039455, 0.057680, 0.080831, 0.106457, 0.131509, 0.154348, 0.154348, 0.173782, 0.189204, 0.195068, 0.165803, 0.122067, 0.086314, 0.086314, 0.061941, 0.048319, 0.044368, 0.048576, 0.058633, 0.058633, 0.070322, 0.086096, 0.105636, 0.126437, 0.146153, 0.163580, 0.163580, 0.177984, 0.188875, 0.182370, 0.138334, 0.086453, 0.047332, 0.047332, 0.022666, 0.011246, 0.011315, 0.020814, 0.035756, 0.035756, 0.053857, 0.076497, 0.102372, 0.128166, 0.151852, 0.172148, 0.172148, 0.188415, 0.198834, 0.180590, 0.135997, 0.094612, 0.064652, 0.064652, 0.046339, 0.038648, 0.040140, 0.048896, 0.060517, 0.060517, 0.075745, 0.095104, 0.116929, 0.138178, 0.157439, 0.173736, 0.173736, 0.186610, 0.189318, 0.154111, 0.103957, 0.062965, 0.035849, 0.035849, 0.021644, 0.018807, 0.025479, 0.038849, 0.054551, 0.054551, 0.074833, 0.098653, 0.123328, 0.146435, 0.166632, 0.183137, 0.183137, 0.195385, 0.187446, 0.138585, 0.085829, 0.046468, 0.021645, 0.021645, 0.010177, 0.010235, 0.019807, 0.034727, 0.053004, 0.053004, 0.076038, 0.102110, 0.128051, 0.151883, 0.172315, 0.188682, 0.188682, 0.198830, 0.180534, 0.144780, 0.114953, 0.093503, 0.080315, 0.080315, 0.074720, 0.075696, 0.081834, 0.089199, 0.098954, 0.098954, 0.112759, 0.128815, 0.144544, 0.158839, 0.170984, 0.180597, 0.180597, 0.180296, 0.139974, 0.079930, 0.030712, 0.002646, 0.000072, 0.000072, 0.000078, 0.002893, 0.016469, 0.033470, 0.056309, 0.056309, 0.083710, 0.112350, 0.139445, 0.163388, 0.183158, 0.197991, 0.197991, 0.190086, 0.140450, 0.082309, 0.038216, 0.010157, 0.000216, 0.000216, 0.000176, 0.008095, 0.022861, 0.041774, 0.066134, 0.066134, 0.094238, 0.122275, 0.148204, 0.170562, 0.188602, 0.199490, 0.199490, 0.176703, 0.123399, 0.073195, 0.037581, 0.016373, 0.008163, 0.008163, 0.011038, 0.022588, 0.037789, 0.057660, 0.082343, 0.082343, 0.109242, 0.135124, 0.158400, 0.177919, 0.193152, 0.195761, 0.195761, 0.157841, 0.101555, 0.055401, 0.024602, 0.008118, 0.004231, 0.004231, 0.010889, 0.024895, 0.042018, 0.064348, 0.090670, 0.090670, 0.117859, 0.143364, 0.165748, 0.184082, 0.197599, 0.189236, 0.189236, 0.144677, 0.094179, 0.055794, 0.031210, 0.019343, 0.018578, 0.018578, 0.026955, 0.040103, 0.056831, 0.078481, 0.103474, 0.103474, 0.128319, 0.151183, 0.170861, 0.186663, 0.195697, 0.173507, 0.173507, 0.126871, 0.084037, 0.053775, 0.035919, 0.029239, 0.032117, 0.032117, 0.042389, 0.055396, 0.072348, 0.093912, 0.117536, 0.117536, 0.140199, 0.160474, 0.177375, 0.190503, 0.190645, 0.151474, 0.151474, 0.096626, 0.051792, 0.022282, 0.006997, 0.004137, 0.011652, 0.011652, 0.026150, 0.043703, 0.066335, 0.092885, 0.120082, 0.120082, 0.145466, 0.167590, 0.185601, 0.198647, 0.188363, 0.143144, 0.143144, 0.094265, 0.057576, 0.034276, 0.023272, 0.022972, 0.031471, 0.031471, 0.044375, 0.060671, 0.081773, 0.106348, 0.130650, 0.130650, 0.152924, 0.171980, 0.187191, 0.195147, 0.168871, 0.114999, 0.114999, 0.065171, 0.030442, 0.010425, 0.003553, 0.007771, 0.020551, 0.020551, 0.036917, 0.057970, 0.083652, 0.111064, 0.137270, 0.137270, 0.160657, 0.180137, 0.195164, 0.195712, 0.155666, 0.097517, 0.097517, 0.050128, 0.018665, 0.002524, 0.000129, 0.006214, 0.020546, 0.020546, 0.038356, 0.061707, 0.089140, 0.117261, 0.143587, 0.143587, 0.166620, 0.185443, 0.198976, 0.186740, 0.136369, 0.082101, 0.082101, 0.041759, 0.016465, 0.004956, 0.005276, 0.015355, 0.030392, 0.030392, 0.049576, 0.073775, 0.101236, 0.128193, 0.152816, 0.152816, 0.173816, 0.190538, 0.198882, 0.171926, 0.122390, 0.079385, 0.079385, 0.049506, 0.032198, 0.026212, 0.029842, 0.040741, 0.054230, 0.054230, 0.072066, 0.094326, 0.118324, 0.141215, 0.161587, 0.161587, 0.178533, 0.191594, 0.189161, 0.146045, 0.089378, 0.044438, 0.044438, 0.015280, 0.001508, 0.000258, 0.008130, 0.023196, 0.041717, 0.041717, 0.065472, 0.093038, 0.121010, 0.146963, 0.169454, 0.169454, 0.187660, 0.200396, 0.186884, 0.135796, 0.081608, 0.041756, 0.041756, 0.016863, 0.005615, 0.006150, 0.016300, 0.031203, 0.050348, 0.050348, 0.074430, 0.101658, 0.128361, 0.152770, 0.173592, 0.173592, 0.190191, 0.197907, 0.168990, 0.117056, 0.069900, 0.037245, 0.037245, 0.018452, 0.012062, 0.016237, 0.028337, 0.043569, 0.063652, 0.063652, 0.088194, 0.114378, 0.139322, 0.161524, 0.179975, 0.179975, 0.194143, 0.191763, 0.153038, 0.105078, 0.066620, 0.041301, 0.041301, 0.028223, 0.025903, 0.032602, 0.044662, 0.059558, 0.079210, 0.079210, 0.102426, 0.126034, 0.148072, 0.167268, 0.182903, 0.182903, 0.193573, 0.176856, 0.130088, 0.085625, 0.053703, 0.034475, 0.034475, 0.026765, 0.028927, 0.039037, 0.052429, 0.069278, 0.090369, 0.090369, 0.113876, 0.136686, 0.157338, 0.174785, 0.188534, 0.188534, 0.193309, 0.164762, 0.118502, 0.078881, 0.051856, 0.036741, 0.036741, 0.032257, 0.036747, 0.047825, 0.061010, 0.078423, 0.099875, 0.099875, 0.122580, 0.144112, 0.163180, 0.178954, 0.190956, 0.190956, 0.185936, 0.144456, 0.095628, 0.057953, 0.033809, 0.022153, 0.022153, 0.021384, 0.029580, 0.042967, 0.059191, 0.079908, 0.103869, 0.103869, 0.127961, 0.150256, 0.169534, 0.185106, 0.195355, 0.195354, 0.178539, 0.134074, 0.092371, 0.062705, 0.044759, 0.037475, 0.037475, 0.039350, 0.048516, 0.060493, 0.075739, 0.095170, 0.116871, 0.116871, 0.138009, 0.157175, 0.173420, 0.186261, 0.189411, 0.189422, 0.153609, 0.098745, 0.053676, 0.023850, 0.008199, 0.004985, 0.004985, 0.012147, 0.026742, 0.044249, 0.066421, 0.092371, 0.119241, 0.119241, 0.144444, 0.166491, 0.184533, 0.197994, 0.192957, 0.192960, 0.152326, 0.105283, 0.070230, 0.047433, 0.036026, 0.034625, 0.034625, 0.041527, 0.052975, 0.067186, 0.085789, 0.107858, 0.130163, 0.130163, 0.150845, 0.168730, 0.183218, 0.192274, 0.170871, 0.170878, 0.123210, 0.081170, 0.051815, 0.034803, 0.028868, 0.032373, 0.032373, 0.043274, 0.057041, 0.074305, 0.095326, 0.118513, 0.140782, 0.140782, 0.160711, 0.177322, 0.190233, 0.192190, 0.155983, 0.155982, 0.104285, 0.063093, 0.035856, 0.021576, 0.018693, 0.025326, 0.025326, 0.038623, 0.054186, 0.074339, 0.098301, 0.123178, 0.146441, 0.146441, 0.166774, 0.183354, 0.195624, 0.187768, 0.143100, 0.143672, 0.092890, 0.054641, 0.030206, 0.018556, 0.018000, 0.026596, 0.026596, 0.040183, 0.057033, 0.078681, 0.103481, 0.128195, 0.150989, 0.150989, 0.170593, 0.186344, 0.196000, 0.174362, 0.121159, 0.121156, 0.069643, 0.033083, 0.011396, 0.003140, 0.006216, 0.018354, 0.018354, 0.034482, 0.055006, 0.080357, 0.107820, 0.134267, 0.158048, 0.158048, 0.178017, 0.193598, 0.197157, 0.160712, 0.103551, 0.103556, 0.054881, 0.022076, 0.004249, 0.000162, 0.005597, 0.019574, 0.019574, 0.036746, 0.059471, 0.086604, 0.114817, 0.141379, 0.164770, 0.164770, 0.183999, 0.198312, 0.191283, 0.147481, 0.100497, 0.100500, 0.065252, 0.042617, 0.031603, 0.030813, 0.038443, 0.050360, 0.050360, 0.065249, 0.084844, 0.107814, 0.130738, 0.151870, 0.170059, 0.170059, 0.184695, 0.192941, 0.165663, 0.104895, 0.048966, 0.049687, 0.010625, 0.000078, 0.000074, 0.000431, 0.010446, 0.025970, 0.025970, 0.046752, 0.073000, 0.102147, 0.130377, 0.155891, 0.177408, 0.177408, 0.194318, 0.197855, 0.161043, 0.105364, 0.059228, 0.059458, 0.028208, 0.011312, 0.006898, 0.012978, 0.026265, 0.042796, 0.042796, 0.064725, 0.090739, 0.117730, 0.143097, 0.165362, 0.183637, 0.183637, 0.197074, 0.187504, 0.139526, 0.085885, 0.045439, 0.043274, 0.019836, 0.007856, 0.007644, 0.017154, 0.031788, 0.050234, 0.050234, 0.073745, 0.100731, 0.127402, 0.151868, 0.172793, 0.189515, 0.189515, 0.198736, 0.172330, 0.115317, 0.061532, 0.023755, 0.026327, 0.002889, 0.000084, 0.001623, 0.013411, 0.029651, 0.050843, 0.050843, 0.077074, 0.105427, 0.132784, 0.157422, 0.178128, 0.194322, 0.194322, 0.196957, 0.160825, 0.106741, 0.062565, 0.032899, 0.032431, 0.016806, 0.012738, 0.018734, 0.031476, 0.047318, 0.068298, 0.068298, 0.093460, 0.119480, 0.143958, 0.165458, 0.183121, 0.195951, 0.195951, 0.183999, 0.133324, 0.078565, 0.038001, 0.012789, 0.013470, 0.001752, 0.002283, 0.012967, 0.028606, 0.048213, 0.072910, 0.072910, 0.100749, 0.128038, 0.152983, 0.174263, 0.191210, 0.199684, 0.199684, 0.167586, 0.102657, 0.043053, 0.005127, 0.000069, 0.000068, 0.000068, 0.000093, 0.006306, 0.020193, 0.040117, 0.066014, 0.066014, 0.094650, 0.122868, 0.148879, 0.171260, 0.189241, 0.191796, 0.191796, 0.154539, 0.103292, 0.061528, 0.033858, 0.019318, 0.016357, 0.016357, 0.023077, 0.035947, 0.051692, 0.072500, 0.097289, 0.097289, 0.122763, 0.146511, 0.167217, 0.184090, 0.195977, 0.179976, 0.179976, 0.123641, 0.064877, 0.022039, 0.000988, 0.000074, 0.000113, 0.000113, 0.007605, 0.022651, 0.041990, 0.066857, 0.095299, 0.095299, 0.123437, 0.149334, 0.171613, 0.189524, 0.198835, 0.173516, 0.173516, 0.123766, 0.079968, 0.049452, 0.031644, 0.025265, 0.028637, 0.028637, 0.039338, 0.052713, 0.070457, 0.092756, 0.116831, 0.116831, 0.139889, 0.160489, 0.177696, 0.191009, 0.188661, 0.148000, 0.148000, 0.097208, 0.057486, 0.031714, 0.018851, 0.017292, 0.025092, 0.025092, 0.038673, 0.055015, 0.076217, 0.100997, 0.126123, 0.126123, 0.149391, 0.169479, 0.185722, 0.196780, 0.178844, 0.125365, 0.125365, 0.072563, 0.034381, 0.011322, 0.001975, 0.004120, 0.015832, 0.015832, 0.031917, 0.052179, 0.077258, 0.104994, 0.131901, 0.131901, 0.156245, 0.176766, 0.192914, 0.199967, 0.170733, 0.117904, 0.117904, 0.070520, 0.037715, 0.018795, 0.012303, 0.016360, 0.028219, 0.028219, 0.043229, 0.063288, 0.087807, 0.113811, 0.138651, 0.138651, 0.160812, 0.179259, 0.193467, 0.189031, 0.143498, 0.087315, 0.087315, 0.043718, 0.015656, 0.002212, 0.000840, 0.009753, 0.025062, 0.025062, 0.043874, 0.067808, 0.095368, 0.123115, 0.148744, 0.148744, 0.170842, 0.188644, 0.200467, 0.179256, 0.120543, 0.065813, 0.065813, 0.027043, 0.004451, 0.000087, 0.001364, 0.012800, 0.028807, 0.028807, 0.049595, 0.075117, 0.103398, 0.130858, 0.155731, 0.155731, 0.176751, 0.193302, 0.199788, 0.168702, 0.117563, 0.073519, 0.073519, 0.043258, 0.026018, 0.020460, 0.024784, 0.036264, 0.050362, 0.050362, 0.069426, 0.092707, 0.117357, 0.140841, 0.161736, 0.161736, 0.179100, 0.192374, 0.185678, 0.137083, 0.083179, 0.043582, 0.043582, 0.018735, 0.007391, 0.007743, 0.017704, 0.033085, 0.051626, 0.051626, 0.074864, 0.101340, 0.127696, 0.151887, 0.172594, 0.172594, 0.189160, 0.199678, 0.179072, 0.129939, 0.086177, 0.055210, 0.055210, 0.036633, 0.029302, 0.031653, 0.041657, 0.054456, 0.070786, 0.070786, 0.091703, 0.115072, 0.137716, 0.158151, 0.175366, 0.175366, 0.188890, 0.192323, 0.161842, 0.118374, 0.084013, 0.060983, 0.060983, 0.048540, 0.045487, 0.050398, 0.060735, 0.072613, 0.088494, 0.088494, 0.108076, 0.129023, 0.148707, 0.165947, 0.180063, 0.180063, 0.190571, 0.182109, 0.140285, 0.097964, 0.066621, 0.047026, 0.047026, 0.038231, 0.038795, 0.047073, 0.059268, 0.073530, 0.092027, 0.092027, 0.113701, 0.135278, 0.155016, 0.171857, 0.185274, 0.185274, 0.193262, 0.170687, 0.121967, 0.077007, 0.045226, 0.026653, 0.026653, 0.019965, 0.023371, 0.034695, 0.049120, 0.067340, 0.089994, 0.089994, 0.114767, 0.138540, 0.159865, 0.177699, 0.191568, 0.191568, 0.194363, 0.158301, 0.102063, 0.054149, 0.021998, 0.004673, 0.004673, 0.000358, 0.006550, 0.020742, 0.038096, 0.060733, 0.087660, 0.087660, 0.115644, 0.141960, 0.165112, 0.184113, 0.198295, 0.198295, 0.191389, 0.144113, 0.088025, 0.044992, 0.017329, 0.003886, 0.003886, 0.002616, 0.011591, 0.026487, 0.045097, 0.068992, 0.096515, 0.096515, 0.123963, 0.149258, 0.171053, 0.188597, 0.199255, 0.199255, 0.175371, 0.118212, 0.063048, 0.023892, 0.002473, 0.000081, 0.000081, 0.000983, 0.011816, 0.027654, 0.048429, 0.074467, 0.102926, 0.102926, 0.130524, 0.155503, 0.176621, 0.193249, 0.197060, 0.197060, 0.159509, 0.102287, 0.054575, 0.022573, 0.005291, 0.000885, 0.000885, 0.007231, 0.021182, 0.038377, 0.061213, 0.088161, 0.116074, 0.116074, 0.142321, 0.165357, 0.184279, 0.198294, 0.190307, 0.190307, 0.149030, 0.104863, 0.071499, 0.049994, 0.039480, 0.038597, 0.038597, 0.045682, 0.056716, 0.070425, 0.088775, 0.110638, 0.132461, 0.132461, 0.152583, 0.169864, 0.183785, 0.191444, 0.165457, 0.165457, 0.112190, 0.064165, 0.030926, 0.012058, 0.006008, 0.010774, 0.010774, 0.023897, 0.040359, 0.061058, 0.086202, 0.113166, 0.138890, 0.138890, 0.161759, 0.180722, 0.195338, 0.196646, 0.157476, 0.157476, 0.100127, 0.052847, 0.021312, 0.004528, 0.000581, 0.007281, 0.007281, 0.021496, 0.039078, 0.062069, 0.089133, 0.116997, 0.143131, 0.143131, 0.166044, 0.184775, 0.198482, 0.188554, 0.141162, 0.141162, 0.089609, 0.051019, 0.026576, 0.015107, 0.014911, 0.023974, 0.023974, 0.037862, 0.055271, 0.077626, 0.103344, 0.128753, 0.152067, 0.152067, 0.172036, 0.188001, 0.196508, 0.168246, 0.108374, 0.108374, 0.052302, 0.013368, 0.000106, 0.000073, 0.000471, 0.010468, 0.010468, 0.025821, 0.046678, 0.072984, 0.101668, 0.129506, 0.154773, 0.154773, 0.176166, 0.193025, 0.194944, 0.155303, 0.100666, 0.100666, 0.057059, 0.028198, 0.013066, 0.009999, 0.017005, 0.030594, 0.030594, 0.047106, 0.068972, 0.094708, 0.121084, 0.145722, 0.167229, 0.167229, 0.184767, 0.197316, 0.185897, 0.141713, 0.095751, 0.095751, 0.061407, 0.039718, 0.029712, 0.029832, 0.038251, 0.050518, 0.050518, 0.065989, 0.086152, 0.109543, 0.132588, 0.153697, 0.171747, 0.171747, 0.186174, 0.192823, 0.160920, 0.099344, 0.044587, 0.044587, 0.008165, 0.000075, 0.000072, 0.000750, 0.011445, 0.027230, 0.027230, 0.048547, 0.074989, 0.103594, 0.131241, 0.156220, 0.177275, 0.177275, 0.193803, 0.194403, 0.152494, 0.093903, 0.047265, 0.047265, 0.016563, 0.001633, 0.000127, 0.006554, 0.021000, 0.039087, 0.039087, 0.062608, 0.090147, 0.118283, 0.144552, 0.167471, 0.186154, 0.186154, 0.199432, 0.186388, 0.139107, 0.089711, 0.053108, 0.053108, 0.030134, 0.019615, 0.019959, 0.029121, 0.042445, 0.059653, 0.059653, 0.081624, 0.106567, 0.131078, 0.153501, 0.172644, 0.187918, 0.187918, 0.194281, 0.161552, 0.104414, 0.053167, 0.018182, 0.018182, 0.001198, 0.000085, 0.002750, 0.016050, 0.032959, 0.055109, 0.055109, 0.081707, 0.109846, 0.136720, 0.160694, 0.180651, 0.196036, 0.196036, 0.194648, 0.154614, 0.102903, 0.061964, 0.034941, 0.034941, 0.020866, 0.018173, 0.025031, 0.037756, 0.053653, 0.074473, 0.074473, 0.098882, 0.123745, 0.146961, 0.167205, 0.183697, 0.195070, 0.195070, 0.178428, 0.125845, 0.074905, 0.038575, 0.016713, 0.016713, 0.007936, 0.010334, 0.021786, 0.037373, 0.056809, 0.080957, 0.080957, 0.107654, 0.133500, 0.156848, 0.176531, 0.192007, 0.197877, 0.197877, 0.162606, 0.100843, 0.048440, 0.013085, 0.000165, 0.000165, 0.000079, 0.001971, 0.014508, 0.031140, 0.053288, 0.080044, 0.080044, 0.108445, 0.135590, 0.159869, 0.180120, 0.195754, 0.193811, 0.193811, 0.151874, 0.100265, 0.060797, 0.035025, 0.021970, 0.021970, 0.020061, 0.027420, 0.040350, 0.056261, 0.077167, 0.101348, 0.101348, 0.125831, 0.148591, 0.168365, 0.184431, 0.195082, 0.174105, 0.174105, 0.116284, 0.060120, 0.020244, 0.000955, 0.000077, 0.000077, 0.000519, 0.010724, 0.026410, 0.046811, 0.072381, 0.100969, 0.100969, 0.128814, 0.154124, 0.175593, 0.192590, 0.199105, 0.165215, 0.165215, 0.108719, 0.061833, 0.030116, 0.012506, 0.007446, 0.007446, 0.012941, 0.026104, 0.042371, 0.063700, 0.089078, 0.115745, 0.115745, 0.140978, 0.163281, 0.181697, 0.195663, 0.190578, 0.149829, 0.149829, 0.105256, 0.071832, 0.050232, 0.039599, 0.038598, 0.038598, 0.045567, 0.056726, 0.070281, 0.088237, 0.109628, 0.131215, 0.131215, 0.151233, 0.168554, 0.182591, 0.191423, 0.169818, 0.125893, 0.125893, 0.089434, 0.063943, 0.049311, 0.044431, 0.047850, 0.047850, 0.057761, 0.069663, 0.084309, 0.102924, 0.123682, 0.143586, 0.143586, 0.161360, 0.176161, 0.187653, 0.188994, 0.150883, 0.091467, 0.091467, 0.040696, 0.007710, 0.000079, 0.000079, 0.002521, 0.002521, 0.015713, 0.032414, 0.055051, 0.082238, 0.110839, 0.137986, 0.137986, 0.162082, 0.182028, 0.197183, 0.192922, 0.150201, 0.098368, 0.098368, 0.058866, 0.033155, 0.020275, 0.018618, 0.026263, 0.026263, 0.039211, 0.055395, 0.076626, 0.101449, 0.126390, 0.149476, 0.149476, 0.169427, 0.185538, 0.195648, 0.173795, 0.120187, 0.069064, 0.069064, 0.032778, 0.011313, 0.003224, 0.006450, 0.018670, 0.018670, 0.034841, 0.055306, 0.080674, 0.108280, 0.134835, 0.158669, 0.158669, 0.178628, 0.194167, 0.197945, 0.163056, 0.109665, 0.064374, 0.064374, 0.033677, 0.016688, 0.011911, 0.017393, 0.030114, 0.030114, 0.045786, 0.066714, 0.091705, 0.117814, 0.142448, 0.164165, 0.164165, 0.182053, 0.195403, 0.188044, 0.144801, 0.095855, 0.058434, 0.058434, 0.034450, 0.022864, 0.022127, 0.030314, 0.043278, 0.043278, 0.059448, 0.080424, 0.104699, 0.128929, 0.151260, 0.170467, 0.170467, 0.185931, 0.195010, 0.170366, 0.112386, 0.058058, 0.019987, 0.019987, 0.001189, 0.000080, 0.001204, 0.012592, 0.028882, 0.028882, 0.049848, 0.075991, 0.104531, 0.132081, 0.156922, 0.177817, 0.177817, 0.194192, 0.197009, 0.157303, 0.097857, 0.048119, 0.014914, 0.014914, 0.000562, 0.000088, 0.003693, 0.017428, 0.034532, 0.034532, 0.057491, 0.084741, 0.113044, 0.139791, 0.163432, 0.182950, 0.182950, 0.197507, 0.189029, 0.141309, 0.087368, 0.046387, 0.020301, 0.020301, 0.007900, 0.007351, 0.016616, 0.031125, 0.049493, 0.049493, 0.072969, 0.099936, 0.126629, 0.151155, 0.172174, 0.189015, 0.189015, 0.198759, 0.175222, 0.123300, 0.076002, 0.042755, 0.023143, 0.023143, 0.015803, 0.018936, 0.030208, 0.044778, 0.063625, 0.063625, 0.087140, 0.112715, 0.137276, 0.159315, 0.177755, 0.192119, 0.192119, 0.192764, 0.150861, 0.089983, 0.039680, 0.007248, 0.000077, 0.000077, 0.000079, 0.002759, 0.015907, 0.032936, 0.055966, 0.055966, 0.083398, 0.111908, 0.138864, 0.162752, 0.182494, 0.197149, 0.197149, 0.188027, 0.146262, 0.102417, 0.069110, 0.047808, 0.037601, 0.037601, 0.037069, 0.044511, 0.055715, 0.069965, 0.088894, 0.088894, 0.111065, 0.133056, 0.153233, 0.170564, 0.184444, 0.191641, 0.191641, 0.167754, 0.119423, 0.073832, 0.041988, 0.023576, 0.017210, 0.017210, 0.021071, 0.032677, 0.047322, 0.066243, 0.089765, 0.089765, 0.114968, 0.139089, 0.160610, 0.178570, 0.192468, 0.192149, 0.192149, 0.153422, 0.101496, 0.059313, 0.031478, 0.016958, 0.014165, 0.014165, 0.021148, 0.034561, 0.050843, 0.072094, 0.097249, 0.097249, 0.123025, 0.147034, 0.167892, 0.184871, 0.196929, 0.182637, 0.182637, 0.128304, 0.071196, 0.029206, 0.004333, 0.000081, 0.000292, 0.000292, 0.009468, 0.024805, 0.044682, 0.069671, 0.097925, 0.097925, 0.125730, 0.151210, 0.172975, 0.190387, 0.199483, 0.174304, 0.174304, 0.128370, 0.086191, 0.056442, 0.038840, 0.032210, 0.034955, 0.034955, 0.044740, 0.056993, 0.073629, 0.094788, 0.117687, 0.117687, 0.139719, 0.159505, 0.176074, 0.188985, 0.187072, 0.149015, 0.149015, 0.101906, 0.064914, 0.040912, 0.028928, 0.027487, 0.034786, 0.034786, 0.047416, 0.062497, 0.082004, 0.105008, 0.128382, 0.128382, 0.150071, 0.168851, 0.184022, 0.194452, 0.177150, 0.125942, 0.125942, 0.075150, 0.038308, 0.016075, 0.007068, 0.009357, 0.020793, 0.020793, 0.036641, 0.056258, 0.080427, 0.107341, 0.133431, 0.133431, 0.156988, 0.176833, 0.192394, 0.199289, 0.170290, 0.118560, 0.118560, 0.073273, 0.041980, 0.024011, 0.017980, 0.022075, 0.033760, 0.033760, 0.048440, 0.067953, 0.091435, 0.116283, 0.140006, 0.140006, 0.161147, 0.178758, 0.192298, 0.189614, 0.148691, 0.099747, 0.099747, 0.062922, 0.039139, 0.027453, 0.026333, 0.033960, 0.046812, 0.046812, 0.062304, 0.082159, 0.105379, 0.128855, 0.150583, 0.150583, 0.169356, 0.184521, 0.194737, 0.176985, 0.125645, 0.074500, 0.074500, 0.037550, 0.015257, 0.006269, 0.008598, 0.020097, 0.035929, 0.035929, 0.055684, 0.080049, 0.106961, 0.133061, 0.156656, 0.156656, 0.176563, 0.192224, 0.198840, 0.171675, 0.130570, 0.097599, 0.097599, 0.074810, 0.061685, 0.057316, 0.060377, 0.068813, 0.078564, 0.078564, 0.092187, 0.109505, 0.128229, 0.146115, 0.162056, 0.162056, 0.175319, 0.185524, 0.180047, 0.138192, 0.091905, 0.057816, 0.057816, 0.036554, 0.027035, 0.027730, 0.036759, 0.050459, 0.066585, 0.066585, 0.086912, 0.110045, 0.133136, 0.154256, 0.172288, 0.172293, 0.186667, 0.195951, 0.176664, 0.126593, 0.080962, 0.048707, 0.048707, 0.029530, 0.022158, 0.024917, 0.035705, 0.049946, 0.067851, 0.067851, 0.089835, 0.114201, 0.137716, 0.158862, 0.176594, 0.176591, 0.190461, 0.194789, 0.166108, 0.121800, 0.084416, 0.058945, 0.058945, 0.044646, 0.040331, 0.044511, 0.054739, 0.066740, 0.083158, 0.083158, 0.103399, 0.124883, 0.145244, 0.163258, 0.178160, 0.178156, 0.189448, 0.183051, 0.140398, 0.092565, 0.056238, 0.033269, 0.033269, 0.022607, 0.022598, 0.031400, 0.045079, 0.061601, 0.082626, 0.082626, 0.106922, 0.131130, 0.153305, 0.172253, 0.187370, 0.187365, 0.196765, 0.174519, 0.121990, 0.071442, 0.035236, 0.013711, 0.013711, 0.005425, 0.008370, 0.020329, 0.036383, 0.056465, 0.081343, 0.081343, 0.108620, 0.134856, 0.158428, 0.178184, 0.193598, 0.193591, 0.198153, 0.164240, 0.108786, 0.061292, 0.029025, 0.011087, 0.011087, 0.005861, 0.011311, 0.024513, 0.040827, 0.062686, 0.088583, 0.088583, 0.115557, 0.141026, 0.163527, 0.182088, 0.196083, 0.196086, 0.189601, 0.140810, 0.082655, 0.037904, 0.009392, 0.000136, 0.000136, 0.000130, 0.007426, 0.022335, 0.041409, 0.065731, 0.093704, 0.093704, 0.121702, 0.147590, 0.169969, 0.188052, 0.199499, 0.199507, 0.177046, 0.122125, 0.069563, 0.031983, 0.009562, 0.000994, 0.000994, 0.003531, 0.015680, 0.032088, 0.053014, 0.078823, 0.106760, 0.106760, 0.133648, 0.157815, 0.178106, 0.193959, 0.197976, 0.197976, 0.163278, 0.110971, 0.066937, 0.037150, 0.020709, 0.016113, 0.016113, 0.021507, 0.033876, 0.049115, 0.069566, 0.094076, 0.119690, 0.119690, 0.143797, 0.164980, 0.182394, 0.195354, 0.187016, 0.186025, 0.139150, 0.086524, 0.046999, 0.022066, 0.010498, 0.010504, 0.010504, 0.020030, 0.034705, 0.052840, 0.075973, 0.102425, 0.128597, 0.128597, 0.152563, 0.173028, 0.189380, 0.198898, 0.174197, 0.173345, 0.122564, 0.073672, 0.038867, 0.018266, 0.010441, 0.013517, 0.013517, 0.025107, 0.040275, 0.059804, 0.084200, 0.110683, 0.136125, 0.136125, 0.158935, 0.178016, 0.192881, 0.194308, 0.153097, 0.153751, 0.095158, 0.046709, 0.014600, 0.000633, 0.000092, 0.004647, 0.004647, 0.018989, 0.036554, 0.059790, 0.087169, 0.115454, 0.142015, 0.142015, 0.165326, 0.184429, 0.198524, 0.189372, 0.141173, 0.140911, 0.086224, 0.044385, 0.017702, 0.005011, 0.004369, 0.013726, 0.013726, 0.028526, 0.047298, 0.071292, 0.098571, 0.125595, 0.150444, 0.150444, 0.171770, 0.188862, 0.198686, 0.174512, 0.123500, 0.123554, 0.076679, 0.043666, 0.024177, 0.016915, 0.020070, 0.031226, 0.031226, 0.045600, 0.064545, 0.087962, 0.113219, 0.137498, 0.159262, 0.159262, 0.177486, 0.191655, 0.192618, 0.155988, 0.106794, 0.066958, 0.066958, 0.040528, 0.026579, 0.023697, 0.030051, 0.042492, 0.042492, 0.057473, 0.077302, 0.100652, 0.124612, 0.147020, 0.166589, 0.166589, 0.182557, 0.194052, 0.182776, 0.135687, 0.084759, 0.046850, 0.046850, 0.023228, 0.012628, 0.013310, 0.023197, 0.037735, 0.037735, 0.055991, 0.078947, 0.104973, 0.130502, 0.153804, 0.173641, 0.173641, 0.189428, 0.197737, 0.171712, 0.120353, 0.075637, 0.044583, 0.044583, 0.026644, 0.020463, 0.024287, 0.035709, 0.049963, 0.049963, 0.068624, 0.091580, 0.116162, 0.139685, 0.160683, 0.178188, 0.178188, 0.191740, 0.191157, 0.152172, 0.100154, 0.058792, 0.031648, 0.031648, 0.017680, 0.015288, 0.022547, 0.035990, 0.052321, 0.052321, 0.073557, 0.098467, 0.123905, 0.147566, 0.168118, 0.184804, 0.184804, 0.196609, 0.183611, 0.134047, 0.082063, 0.043835, 0.020136, 0.020136, 0.009678, 0.010619, 0.020870, 0.035720, 0.054345, 0.054345, 0.077890, 0.104605, 0.130731, 0.154497, 0.174666, 0.190645, 0.190645, 0.198252, 0.169733, 0.119803, 0.077867, 0.048989, 0.032530, 0.032530, 0.027205, 0.031308, 0.042489, 0.056127, 0.074039, 0.074039, 0.096143, 0.119795, 0.142323, 0.162321, 0.178910, 0.191647, 0.191647, 0.189070, 0.151137, 0.106174, 0.071346, 0.048673, 0.037279, 0.037279, 0.035796, 0.042552, 0.054207, 0.068098, 0.086300, 0.086300, 0.107930, 0.129986, 0.150478, 0.168239, 0.182630, 0.192539, 0.192539, 0.176687, 0.129348, 0.084700, 0.052702, 0.033487, 0.025845, 0.025845, 0.028139, 0.038408, 0.052037, 0.069024, 0.090176, 0.090176, 0.114110, 0.137294, 0.158201, 0.175807, 0.189624, 0.195216, 0.195216, 0.169977, 0.129105, 0.094658, 0.070827, 0.057120, 0.052539, 0.052539, 0.055723, 0.064528, 0.074789, 0.088906, 0.106993, 0.106993, 0.126553, 0.145242, 0.161911, 0.175790, 0.186464, 0.180193, 0.180193, 0.131737, 0.076473, 0.035290, 0.009778, 0.000358, 0.000933, 0.000933, 0.011155, 0.027570, 0.047110, 0.071338, 0.098850, 0.098850, 0.126306, 0.151478, 0.173042, 0.190292, 0.201813, 0.182824, 0.182824, 0.127417, 0.073512, 0.034769, 0.011216, 0.001545, 0.003312, 0.003312, 0.014827, 0.030847, 0.051079, 0.076225, 0.104204, 0.104204, 0.131376, 0.155965, 0.176724, 0.193082, 0.198991, 0.164437, 0.164437, 0.107736, 0.060636, 0.028719, 0.011060, 0.006057, 0.011692, 0.011692, 0.025136, 0.041619, 0.063051, 0.088747, 0.115905, 0.115905, 0.141565, 0.164192, 0.182855, 0.196985, 0.193184, 0.157824, 0.157824, 0.119798, 0.090890, 0.071747, 0.061807, 0.060032, 0.065065, 0.065065, 0.073603, 0.083777, 0.098260, 0.116162, 0.134547, 0.134547, 0.151704, 0.166635, 0.178822, 0.186663, 0.165796, 0.113050, 0.113050, 0.061807, 0.025755, 0.005123, 0.000114, 0.002985, 0.016213, 0.016213, 0.033165, 0.054163, 0.079979, 0.108287, 0.135438, 0.135438, 0.159733, 0.179997, 0.195742, 0.200106, 0.161362, 0.096558, 0.096558, 0.040731, 0.005363, 0.000071, 0.000071, 0.000411, 0.010072, 0.010072, 0.025025, 0.046376, 0.073123, 0.101974, 0.129887, 0.129887, 0.155171, 0.176522, 0.193225, 0.189881, 0.145584, 0.091600, 0.091600, 0.049612, 0.022468, 0.009070, 0.007650, 0.016148, 0.030337, 0.030337, 0.048076, 0.070941, 0.097718, 0.124615, 0.149445, 0.149445, 0.170831, 0.188041, 0.198919, 0.176562, 0.119627, 0.065046, 0.065046, 0.026221, 0.003883, 0.000085, 0.001278, 0.012500, 0.028338, 0.028338, 0.048840, 0.074613, 0.103024, 0.130588, 0.155555, 0.155555, 0.176662, 0.193269, 0.197733, 0.157395, 0.090582, 0.033201, 0.033201, 0.001794, 0.000068, 0.000068, 0.000127, 0.007712, 0.021885, 0.021885, 0.042944, 0.069575, 0.098507, 0.126704, 0.152426, 0.152426, 0.174330, 0.191511, 0.186450, 0.139986, 0.085291, 0.043217, 0.043217, 0.016422, 0.003690, 0.003047, 0.012515, 0.027550, 0.046292, 0.046292, 0.070206, 0.097610, 0.124918, 0.150069, 0.171670, 0.171670, 0.189018, 0.199604, 0.178138, 0.126808, 0.078399, 0.043913, 0.043913, 0.023203, 0.014951, 0.017413, 0.028273, 0.042554, 0.061037, 0.061037, 0.084460, 0.110213, 0.135144, 0.157625, 0.176558, 0.176558, 0.191401, 0.193685, 0.152124, 0.087977, 0.033911, 0.002709, 0.002709, 0.000069, 0.000073, 0.000768, 0.011112, 0.026412, 0.048287, 0.048287, 0.075379, 0.104261, 0.132063, 0.157107, 0.178149, 0.178149, 0.194307, 0.186476, 0.135487, 0.077012, 0.032719, 0.005515, 0.005515, 0.000081, 0.000112, 0.007227, 0.021901, 0.040572, 0.064988, 0.064988, 0.093045, 0.121094, 0.147122, 0.169657, 0.187896, 0.187896, 0.198782, 0.175013, 0.124079, 0.076246, 0.042296, 0.022124, 0.022124, 0.014394, 0.017281, 0.028444, 0.042829, 0.061563, 0.085247, 0.085247, 0.111141, 0.136085, 0.158528, 0.177364, 0.192081, 0.192081, 0.193145, 0.152235, 0.094385, 0.047275, 0.016225, 0.001373, 0.001373, 0.000110, 0.005971, 0.020647, 0.038271, 0.061275, 0.088540, 0.088540, 0.116712, 0.143117, 0.166268, 0.185221, 0.199051, 0.199051, 0.186349, 0.127163, 0.060745, 0.012046, 0.000071, 0.000066, 0.000066, 0.000073, 0.001491, 0.011911, 0.028407, 0.051798, 0.079891, 0.079891, 0.108794, 0.136273, 0.160762, 0.181126, 0.193774, 0.193774, 0.169832, 0.116034, 0.065190, 0.029579, 0.008888, 0.001563, 0.001563, 0.005417, 0.018057, 0.034212, 0.055234, 0.081107, 0.108898, 0.108898, 0.135578, 0.159450, 0.179434, 0.194960, 0.195904, 0.195904, 0.156748, 0.102214, 0.058542, 0.029531, 0.014146, 0.010798, 0.010798, 0.017516, 0.030813, 0.046959, 0.068399, 0.093803, 0.119938, 0.119938, 0.144482, 0.165964, 0.183579, 0.196228, 0.180205, 0.180205, 0.119441, 0.053732, 0.007879, 0.000067, 0.000064, 0.000072, 0.000072, 0.001690, 0.012319, 0.029070, 0.052524, 0.080665, 0.109499, 0.109499, 0.136905, 0.161266, 0.181516, 0.193250, 0.165972, 0.165972, 0.108827, 0.055950, 0.019329, 0.001246, 0.000082, 0.001832, 0.001832, 0.013967, 0.030112, 0.051392, 0.077920, 0.106591, 0.134163, 0.134163, 0.158921, 0.179629, 0.195757, 0.195296, 0.154132, 0.154132, 0.102050, 0.060688, 0.033426, 0.019223, 0.016546, 0.023471, 0.023471, 0.036442, 0.052082, 0.072915, 0.097606, 0.122961, 0.146671, 0.146671, 0.167360, 0.184207, 0.196020, 0.178428, 0.120872, 0.120872, 0.062481, 0.020431, 0.000713, 0.000073, 0.000131, 0.008138, 0.008138, 0.022943, 0.041983, 0.066818, 0.095412, 0.123694, 0.149721, 0.149721, 0.172084, 0.189996, 0.198588, 0.167587, 0.109715, 0.109715, 0.058500, 0.023287, 0.003720, 0.000096, 0.003210, 0.016350, 0.016350, 0.032571, 0.053991, 0.080429, 0.108745, 0.135851, 0.160094, 0.160094, 0.180324, 0.195935, 0.194364, 0.154557, 0.104623, 0.104623, 0.065496, 0.039649, 0.026231, 0.023752, 0.030399, 0.042481, 0.042481, 0.057222, 0.076960, 0.100564, 0.124767, 0.147388, 0.167122, 0.167122, 0.183228, 0.194291, 0.176004, 0.121522, 0.067228, 0.067228, 0.028064, 0.004956, 0.000088, 0.001224, 0.012391, 0.028381, 0.028381, 0.048437, 0.073635, 0.101919, 0.129550, 0.154671, 0.175972, 0.175972, 0.192839, 0.199604, 0.165761, 0.109330, 0.062865, 0.062865, 0.031462, 0.013988, 0.008952, 0.014375, 0.027484, 0.043319, 0.043319, 0.064047, 0.089008, 0.115379, 0.140461, 0.162712, 0.181157, 0.181157, 0.195260, 0.192453, 0.150433, 0.098574, 0.059440, 0.059440, 0.033979, 0.021169, 0.019514, 0.027079, 0.040016, 0.055938, 0.055938, 0.076511, 0.100817, 0.125570, 0.148599, 0.168593, 0.184836, 0.184836, 0.195616, 0.174313, 0.119760, 0.070787, 0.036762, 0.036762, 0.016829, 0.009568, 0.013152, 0.025304, 0.040753, 0.059847, 0.059847, 0.083613, 0.110163, 0.135787, 0.158834, 0.178149, 0.193239, 0.193239, 0.197595, 0.160216, 0.097910, 0.043338, 0.007487, 0.007487, 0.000074, 0.000073, 0.000815, 0.011390, 0.026599, 0.047716, 0.047716, 0.074387, 0.103203, 0.131053, 0.156228, 0.177444, 0.194008, 0.194008, 0.190221, 0.140345, 0.077241, 0.028316, 0.001797, 0.001797, 0.000071, 0.000078, 0.002871, 0.015430, 0.032448, 0.055624, 0.055624, 0.083418, 0.112024, 0.139093, 0.163064, 0.182878, 0.196454, 0.196454, 0.175901, 0.116022, 0.056456, 0.014114, 0.000090, 0.000090, 0.000072, 0.000097, 0.006725, 0.020733, 0.039900, 0.065085, 0.065085, 0.093834, 0.122265, 0.148512, 0.171136, 0.189355, 0.196146, 0.196146, 0.162019, 0.106988, 0.061280, 0.030432, 0.013511, 0.013511, 0.008944, 0.014745, 0.027939, 0.043678, 0.064411, 0.089869, 0.089869, 0.116792, 0.142192, 0.164589, 0.183022, 0.196877, 0.188629, 0.188629, 0.131065, 0.060309, 0.009059, 0.000065, 0.000062, 0.000062, 0.000067, 0.000130, 0.006673, 0.020931, 0.042592, 0.070021, 0.070021, 0.099155, 0.127457, 0.153227, 0.175119, 0.190622, 0.172260, 0.172260, 0.117252, 0.063844, 0.026057, 0.004289, 0.000089, 0.000089, 0.001771, 0.013714, 0.029772, 0.050267, 0.075895, 0.104246, 0.104246, 0.131706, 0.156513, 0.177437, 0.193882, 0.197812, 0.159248, 0.159248, 0.100835, 0.052113, 0.019426, 0.002429, 0.000103, 0.000103, 0.004892, 0.018936, 0.035867, 0.058241, 0.085250, 0.113522, 0.113522, 0.140249, 0.163854, 0.183341, 0.197949, 0.188038, 0.128297, 0.128297, 0.056161, 0.006398, 0.000064, 0.000061, 0.000067, 0.000067, 0.000097, 0.005279, 0.019114, 0.040537, 0.067928, 0.097096, 0.097096, 0.125564, 0.151566, 0.173770, 0.189108, 0.168279, 0.113106, 0.113106, 0.060287, 0.023191, 0.002813, 0.000086, 0.001916, 0.001916, 0.014149, 0.030405, 0.051166, 0.077121, 0.105570, 0.133024, 0.133024, 0.157746, 0.178500, 0.194738, 0.197752, 0.159290, 0.101334, 0.101334, 0.052465, 0.019607, 0.002466, 0.000101, 0.004758, 0.004758, 0.018662, 0.035431, 0.057886, 0.085029, 0.113396, 0.140212, 0.140212, 0.163900, 0.183428, 0.197971, 0.187593, 0.133171, 0.072748, 0.072748, 0.027497, 0.002310, 0.000073, 0.000089, 0.005630, 0.005630, 0.019767, 0.037993, 0.062082, 0.090299, 0.118671, 0.145114, 0.145114, 0.168139, 0.186859, 0.197802, 0.168728, 0.102523, 0.040456, 0.040456, 0.003192, 0.000066, 0.000066, 0.000080, 0.003870, 0.003870, 0.016285, 0.034822, 0.060039, 0.088816, 0.117576, 0.144401, 0.144401, 0.167776, 0.186787, 0.191486, 0.150362, 0.086869, 0.034238, 0.034238, 0.003222, 0.000072, 0.000074, 0.001318, 0.012364, 0.012364, 0.027983, 0.050000, 0.077272, 0.106213, 0.133959, 0.158841, 0.158841, 0.179675, 0.195389, 0.184425, 0.129957, 0.069948, 0.025541, 0.025541, 0.001769, 0.000075, 0.000092, 0.006232, 0.020458, 0.020458, 0.038950, 0.063186, 0.091265, 0.119468, 0.145716, 0.168545, 0.168545, 0.187113, 0.197589, 0.168035, 0.101362, 0.038938, 0.002606, 0.002606, 0.000064, 0.000067, 0.000078, 0.003625, 0.015856, 0.015856, 0.034398, 0.059659, 0.088257, 0.116932, 0.143712, 0.167100, 0.167100, 0.186176, 0.189754, 0.150129, 0.093283, 0.047187, 0.016947, 0.016947, 0.001995, 0.000168, 0.007164, 0.021852, 0.039588, 0.039590, 0.062707, 0.089965, 0.117887, 0.144064, 0.166958, 0.185667, 0.185667, 0.199131, 0.184711, 0.125706, 0.063721, 0.018518, 0.000217, 0.000217, 0.000069, 0.000084, 0.004753, 0.018140, 0.036226, 0.036226, 0.060387, 0.088761, 0.117260, 0.143926, 0.167209, 0.186231, 0.186231, 0.196558, 0.166274, 0.100635, 0.038905, 0.002767, 0.000066, 0.000066, 0.000066, 0.000082, 0.004192, 0.016815, 0.035974, 0.035974, 0.061471, 0.090231, 0.118854, 0.145489, 0.168637, 0.187414, 0.187414, 0.188710, 0.145597, 0.089724, 0.047002, 0.019480, 0.005937, 0.005937, 0.004524, 0.013220, 0.028134, 0.045958, 0.068646, 0.068646, 0.095409, 0.122615, 0.147853, 0.169728, 0.187435, 0.199765, 0.199765, 0.182675, 0.127821, 0.075574, 0.038214, 0.015496, 0.006090, 0.006090, 0.008089, 0.019333, 0.034694, 0.053775, 0.077746, 0.077746, 0.104724, 0.131086, 0.155025, 0.175353, 0.191441, 0.198372, 0.198372, 0.161737, 0.091622, 0.029986, 0.000595, 0.000063, 0.000065, 0.000065, 0.000079, 0.003695, 0.015946, 0.035014, 0.060512, 0.060512, 0.089368, 0.118164, 0.144948, 0.168279, 0.187203, 0.187969, 0.187969, 0.148135, 0.098194, 0.058702, 0.033021, 0.020137, 0.018474, 0.018474, 0.026117, 0.039265, 0.055052, 0.075611, 0.100389, 0.100389, 0.125843, 0.149448, 0.169843, 0.186349, 0.197474, 0.178028, 0.178028, 0.124454, 0.073593, 0.037245, 0.015411, 0.006727, 0.009284, 0.009284, 0.020891, 0.036286, 0.055666, 0.079733, 0.106618, 0.106618, 0.132790, 0.156491, 0.176487, 0.192265, 0.198279, 0.164912, 0.164912, 0.110435, 0.066123, 0.036139, 0.019549, 0.014878, 0.020252, 0.020252, 0.032953, 0.048008, 0.067502, 0.091629, 0.117310, 0.117320, 0.141688, 0.163277, 0.181111, 0.194711, 0.188928, 0.135880, 0.135880, 0.069208, 0.017850, 0.000087, 0.000065, 0.000072, 0.001062, 0.001062, 0.011252, 0.026850, 0.049165, 0.076828, 0.105836, 0.105850, 0.133651, 0.158599, 0.179461, 0.194368, 0.174958, 0.110896, 0.110896, 0.044360, 0.003372, 0.000062, 0.000062, 0.000070, 0.001328, 0.001328, 0.010880, 0.027368, 0.051035, 0.079616, 0.108838, 0.108826, 0.136613, 0.161329, 0.181843, 0.191648, 0.156595, 0.091277, 0.091277, 0.033892, 0.001986, 0.000066, 0.000068, 0.000128, 0.007708, 0.007708, 0.021400, 0.041653, 0.068057, 0.096994, 0.125334, 0.125333, 0.151288, 0.173465, 0.191034, 0.186850, 0.134451, 0.069007, 0.069007, 0.018725, 0.000110, 0.000065, 0.000072, 0.001565, 0.012322, 0.012322, 0.028274, 0.050921, 0.078753, 0.107739, 0.135396, 0.135402, 0.160091, 0.180676, 0.194775, 0.171833, 0.107318, 0.044028, 0.044028, 0.004179, 0.000066, 0.000065, 0.000076, 0.003031, 0.014780, 0.014780, 0.032466, 0.056912, 0.085560, 0.114435, 0.141549, 0.141542, 0.165361, 0.184909, 0.192123, 0.149519, 0.074433, 0.012256, 0.012256, 0.000064, 0.000059, 0.000061, 0.000069, 0.000443, 0.008655, 0.008655, 0.026030, 0.050932, 0.079637, 0.108848, 0.136582, 0.136587, 0.161230, 0.181511, 0.179932, 0.131022, 0.067124, 0.017893, 0.017893, 0.000102, 0.000067, 0.000074, 0.002031, 0.013335, 0.029725, 0.029725, 0.052644, 0.080805, 0.109894, 0.137492, 0.161996, 0.161998, 0.182307, 0.195890, 0.172445, 0.108234, 0.044776, 0.004533, 0.004533, 0.000066, 0.000066, 0.000077, 0.003032, 0.014592, 0.032466, 0.032466, 0.057177, 0.086035, 0.115057, 0.142261, 0.166098, 0.166107, 0.185607, 0.191627, 0.147521, 0.075383, 0.015474, 0.000067, 0.000067, 0.000061, 0.000064, 0.000076, 0.002647, 0.013907, 0.032920, 0.032920, 0.058933, 0.088074, 0.117118, 0.144178, 0.167757, 0.167131, 0.186662, 0.179590, 0.121620, 0.052366, 0.005431, 0.000064, 0.000064, 0.000062, 0.000068, 0.000211, 0.007434, 0.021921, 0.043973, 0.043973, 0.071565, 0.100648, 0.128834, 0.154408, 0.176060, 0.178966, 